Ewe/V;"I/mA"
-6.752418279647827E-001;0.000000000000000E+000
-3.179660439491272E-001;0.000000000000000E+000
-7.007787227630615E-001;-3.626571748630127E+000
-7.025978565216064E-001;-1.069833552637292E+000
-7.056087255477905E-001;-7.865239445188679E-001
-7.087255716323853E-001;-7.575274323025702E-001
-7.117598056793213E-001;-7.516947177485864E-001
-7.148501276969910E-001;-7.535041703155203E-001
-7.179765105247498E-001;-7.588892767041102E-001
-7.210700511932373E-001;-7.665616018089807E-001
-7.241551280021667E-001;-7.757702699251556E-001
-7.271172404289246E-001;-7.853939452329142E-001
-7.302806973457336E-001;-7.957492093574849E-001
-7.334081530570984E-001;-8.070496487049628E-001
-7.363680601119995E-001;-8.188768961210382E-001
-7.395220994949341E-001;-8.310186078725721E-001
-7.425795197486877E-001;-8.435058216459641E-001
-7.456371188163757E-001;-8.562243548039354E-001
-7.487899661064148E-001;-8.696113926244617E-001
-7.518463730812073E-001;-8.830453356900740E-001
-7.549186348915100E-001;-8.964847578148465E-001
-7.580036520957947E-001;-9.102711992732608E-001
-7.611152529716492E-001;-9.243016960825443E-001
-7.641611099243164E-001;-9.386528885873968E-001
-7.671402096748352E-001;-9.528281915708945E-001
-7.703471183776855E-001;-9.671105532952744E-001
-7.733813524246216E-001;-9.817425882811772E-001
-7.764632701873779E-001;-9.965554278689517E-001
-7.794998288154602E-001;-1.013896421977122E+000
-7.825881242752075E-001;-1.028384853943273E+000
-7.857314348220825E-001;-1.043248701810615E+000
-7.887540459632874E-001;-1.058578887240174E+000
-7.918899059295654E-001;-1.073860066036591E+000
-7.949208617210388E-001;-1.088937308512227E+000
-7.980186343193054E-001;-1.104176380511650E+000
-8.011503815650940E-001;-1.119473770622516E+000
-8.041696548461914E-001;-1.134771730750284E+000
-8.072303533554077E-001;-1.149988309828665E+000
-8.103494048118591E-001;-1.165000277012560E+000
-8.133792877197266E-001;-1.186761300096549E+000
-8.165024518966675E-001;-1.203408739959949E+000
-8.194677233695984E-001;-1.218036478958712E+000
-8.226418495178223E-001;-1.232742046129784E+000
-8.257153034210205E-001;-1.247235885682210E+000
-8.288266062736511E-001;-1.264643648012106E+000
-8.319058418273926E-001;-1.279409365654384E+000
-8.348605632781982E-001;-1.293918112407569E+000
-8.380886316299438E-001;-1.308421179188748E+000
-8.411038517951965E-001;-1.322576620245195E+000
-8.441517353057861E-001;-1.336891484582704E+000
-8.472621440887451E-001;-1.350938071381695E+000
-8.502497673034668E-001;-1.365096093851859E+000
-8.533878326416016E-001;-1.379222910063490E+000
-8.565237522125244E-001;-1.393051419253702E+000
-8.595557808876038E-001;-1.406230969766096E+000
-8.627235293388367E-001;-1.419566072019524E+000
-8.657269477844238E-001;-1.432912505810386E+000
-8.688331842422485E-001;-1.446231486522295E+000
-8.719129562377930E-001;-1.459687909723804E+000
-8.749503493309021E-001;-1.472895470555784E+000
-8.780692815780640E-001;-1.485770120573483E+000
-8.811288475990295E-001;-1.499096761699256E+000
-8.842617273330688E-001;-1.514781526056442E+000
-8.873290419578552E-001;-1.528251308358302E+000
-8.903706073760986E-001;-1.541655826963559E+000
-8.934716582298279E-001;-1.555112885178655E+000
-8.965067863464355E-001;-1.568800711799469E+000
-8.995897173881531E-001;-1.583369843730328E+000
-9.027131199836731E-001;-1.597658518368536E+000
-9.057651162147522E-001;-1.613136695059115E+000
-9.088947176933289E-001;-1.629348114005776E+000
-9.118928909301758E-001;-1.646683568963552E+000
-9.150171875953674E-001;-1.665662964001552E+000
-9.180586934089661E-001;-1.685766840377079E+000
-9.211661219596863E-001;-1.707608442060167E+000
-9.242606163024902E-001;-1.731481906900837E+000
-9.272179603576660E-001;-1.758617321109202E+000
-9.304089546203613E-001;-1.793972234201703E+000
-9.334610700607300E-001;-1.823097198498161E+000
-9.365938901901245E-001;-1.855992887718012E+000
-9.396597743034363E-001;-1.893797149468050E+000
-9.426791667938232E-001;-1.934247994814115E+000
-9.458469152450562E-001;-1.978850948979834E+000
-9.489861726760864E-001;-2.033339560721615E+000
-9.520279765129089E-001;-2.086929107013985E+000
-9.551141262054443E-001;-2.142800048643249E+000
-9.581270217895508E-001;-2.202794615188296E+000
-9.612600207328796E-001;-2.270022074183181E+000
-9.642869234085083E-001;-2.344778573605833E+000
-9.673731923103333E-001;-2.417816908173535E+000
-9.705107212066650E-001;-2.495759292112492E+000
-9.734873771667480E-001;-2.589511656085199E+000
-9.767133593559265E-001;-2.680885393634973E+000
-9.796843528747559E-001;-2.762061253951373E+000
-9.827630519866943E-001;-2.856359340647060E+000
-9.858852028846741E-001;-2.945157227902953E+000
-9.889519214630127E-001;-3.044744647758769E+000
-9.920907020568848E-001;-3.145756014424343E+000
-9.951225519180298E-001;-3.242787032390346E+000
-9.981827735900879E-001;-3.353930515694213E+000
-1.001319766044617E+000;-3.449517531774216E+000
-1.004267096519470E+000;-3.558800955620848E+000
-1.007433176040649E+000;-3.664261509365346E+000
-1.010424852371216E+000;-3.770607168517031E+000
-1.013528347015381E+000;-3.879856013233081E+000
-1.016654491424561E+000;-3.984727331807154E+000
-1.019686222076416E+000;-4.103183236935418E+000
-1.022868633270264E+000;-4.206825715438343E+000
-1.025853633880615E+000;-4.337364584057688E+000
-1.028930187225342E+000;-4.441431315950737E+000
-1.032105207443237E+000;-4.552452596735236E+000
-1.035084605216980E+000;-4.651540332707793E+000
-1.038231611251831E+000;-4.749790201268108E+000
-1.041233897209167E+000;-4.859586595769642E+000
-1.044368624687195E+000;-4.960973542078619E+000
-1.047519683837891E+000;-5.067883006847707E+000
-1.050467014312744E+000;-5.160732124386143E+000
-1.053667664527893E+000;-5.256214795742110E+000
-1.056669592857361E+000;-5.398248368896162E+000
-1.059812545776367E+000;-5.524303617864703E+000
-1.062885522842407E+000;-5.611808740171028E+000
-1.065932512283325E+000;-5.662079250200833E+000
-1.069050908088684E+000;-5.759094881547512E+000
-1.072105169296265E+000;-5.861163607307184E+000
-1.075167894363403E+000;-5.900053879059662E+000
-1.078218936920166E+000;-5.946972497401333E+000
-1.081265211105347E+000;-6.037991917563616E+000
-1.084494471549988E+000;-6.189306370111467E+000
-1.087505340576172E+000;-6.214206693363129E+000
-1.090577721595764E+000;-6.284391514928537E+000
-1.093639731407166E+000;-6.341306082578413E+000
-1.096668958663940E+000;-6.465135426303519E+000
-1.099871873855591E+000;-6.849286433883435E+000
-1.102860569953918E+000;-7.308355067266263E+000
-1.105941295623779E+000;-7.360579434444226E+000
-1.109104752540588E+000;-7.379172167359286E+000
-1.112078666687012E+000;-7.380205373998692E+000
-1.115266442298889E+000;-7.526368300874907E+000
-1.118175864219666E+000;-7.573780147991826E+000
-1.121345162391663E+000;-7.922591845293667E+000
-1.124418497085571E+000;-7.941387878380368E+000
-1.127425074577332E+000;-7.954686461069713E+000
-1.130626201629639E+000;-8.099440364177767E+000
-1.133625745773315E+000;-8.426579754743358E+000
-1.136716127395630E+000;-8.518957231062501E+000
-1.139880061149597E+000;-8.510212106761273E+000
-1.142892837524414E+000;-8.580771556975478E+000
-1.145986437797546E+000;-8.637543947976894E+000
-1.149082064628601E+000;-8.678438431703796E+000
-1.152142763137817E+000;-8.721502408889428E+000
-1.155217170715332E+000;-8.963897965183179E+000
-1.158292174339294E+000;-9.868612975097136E+000
-1.161356449127197E+000;-1.020216354079793E+001
-1.164432764053345E+000;-1.031604703320991E+001
-1.167525887489319E+000;-1.054615410300992E+001
-1.170730471611023E+000;-1.067334394670107E+001
-1.173652291297913E+000;-1.063447704077296E+001
-1.176957368850708E+000;-1.096513347548915E+001
-1.180186867713928E+000;-1.126509867746287E+001
-1.183289885520935E+000;-1.174984618786860E+001
-1.186365604400635E+000;-1.176595489538398E+001
-1.189408063888550E+000;-1.186649442031649E+001
-1.192574858665466E+000;-1.188253572819832E+001
-1.195492148399353E+000;-1.219267581566304E+001
-1.198645949363709E+000;-1.238400463803577E+001
-1.201755285263062E+000;-1.242871882314836E+001
-1.204772710800171E+000;-1.233380126494589E+001
-1.208000302314758E+000;-1.260863693659393E+001
-1.210968017578125E+000;-1.287755800868644E+001
-1.214032888412476E+000;-1.293286829716089E+001
-1.217185974121094E+000;-1.312922901541589E+001
-1.220201373100281E+000;-1.362476573923951E+001
-1.223377943038940E+000;-1.401054860328588E+001
-1.226343393325806E+000;-1.431731727542984E+001
-1.229442119598389E+000;-1.443283718378061E+001
-1.232505679130554E+000;-1.455578072024218E+001
-1.235545873641968E+000;-1.471932257379660E+001
-1.238740921020508E+000;-1.487908162588576E+001
-1.241749167442322E+000;-1.523980400368720E+001
-1.244930624961853E+000;-1.550290075477295E+001
-1.248094439506531E+000;-1.594797021059044E+001
-1.251093983650208E+000;-1.625665155089524E+001
-1.254228115081787E+000;-1.662355397759117E+001
-1.257248520851135E+000;-1.658221884358500E+001
-1.260352611541748E+000;-1.698455553442841E+001
-1.263427734375000E+000;-1.721177534181368E+001
-1.266517519950867E+000;-1.773840754480989E+001
-1.269555568695068E+000;-1.836617083728349E+001
-1.272650122642517E+000;-1.829329607023493E+001
-1.275703191757202E+000;-1.886143629396508E+001
-1.278898000717163E+000;-2.022570261957804E+001
-1.281848669052124E+000;-2.057345324423102E+001
-1.284996390342712E+000;-2.135644132867382E+001
-1.288010716438293E+000;-2.174928091741671E+001
-1.291103363037109E+000;-2.373315776346897E+001
-1.294213891029358E+000;-2.508560248883362E+001
-1.297224521636963E+000;-2.705592742009290E+001
-1.300374031066895E+000;-2.781504383236484E+001
-1.303456187248230E+000;-2.942463658125106E+001
-1.306572198867798E+000;-3.145039784317601E+001
-1.309603929519653E+000;-3.417333954813131E+001
-1.312641263008118E+000;-3.593834069767399E+001
-1.315776944160461E+000;-3.915599342560097E+001
-1.318771123886108E+000;-4.229311307978230E+001
-1.321922063827515E+000;-4.502833861553734E+001
-1.325019836425781E+000;-4.847951970537486E+001
-1.328062891960144E+000;-5.485232486767006E+001
-1.331163644790649E+000;-5.845719762486146E+001
-1.334217309951782E+000;-6.214599697854624E+001
-1.337245345115662E+000;-6.528314144223208E+001
-1.340408444404602E+000;-6.807802918377570E+001
-1.343424439430237E+000;-7.293247296872562E+001
-1.346580505371094E+000;-7.916725131805575E+001
-1.349624276161194E+000;-8.649320672673502E+001
-1.352702140808105E+000;-9.253856369971390E+001
-1.355748176574707E+000;-9.726327637914108E+001
-1.358778595924377E+000;-1.025618897510268E+002
-1.362065553665161E+000;-1.086060059911065E+002
-1.365263938903809E+000;-1.144780139671358E+002
-1.368368625640869E+000;-1.215288418119903E+002
-1.371466517448425E+000;-1.298254145404621E+002
-1.374535560607910E+000;-1.370448270848342E+002
-1.377625346183777E+000;-1.454924067025518E+002
-1.380635380744934E+000;-1.532981588764558E+002
-1.383786559104919E+000;-1.604181950229649E+002
-1.386883139610291E+000;-1.676637018091733E+002
-1.389920711517334E+000;-1.750685125784258E+002
-1.392989158630371E+000;-1.841899933214372E+002
-1.396083116531372E+000;-1.946987829962982E+002
-1.398993968963623E+000;-2.094620264574241E+002
-1.400506854057312E+000;-2.223624348958333E+002
