Ewe/V;"I/mA"
-1.347780227661133E-001;0.000000000000000E+000
1.469866037368774E-001;0.000000000000000E+000
1.000162959098816E-001;-1.684747213340668E+000
1.017887890338898E-001;-5.528581970402211E-001
1.050719618797302E-001;-2.876693701666850E-001
1.081053987145424E-001;-2.180193958008473E-001
1.112091243267059E-001;-1.769017601139899E-001
1.143630072474480E-001;-1.463059598316339E-001
1.173550859093666E-001;-1.208562051211310E-001
1.204648166894913E-001;-9.714624441821451E-002
1.235498562455177E-001;-7.448746886038282E-002
1.266429573297501E-001;-5.238741257024293E-002
1.297282874584198E-001;-2.998091000208464E-002
1.327924430370331E-001;-7.646809695598000E-003
1.358332931995392E-001;1.459042609444439E-002
1.389949619770050E-001;3.608847722909231E-002
1.419617980718613E-001;5.789892018257051E-002
1.450702846050262E-001;7.968685315501589E-002
1.481545865535736E-001;9.996442303851660E-002
1.512452363967896E-001;1.197957757296257E-001
1.543348282575607E-001;1.385904412446843E-001
1.573650538921356E-001;1.548340970941031E-001
1.605521887540817E-001;1.700969544425268E-001
1.635769158601761E-001;1.823228936388648E-001
1.666592806577683E-001;1.920864726876824E-001
1.697562932968140E-001;1.999581365751237E-001
1.728544086217880E-001;2.054535508444486E-001
1.758867055177689E-001;2.082029492156678E-001
1.790134161710739E-001;2.089042659334176E-001
1.819645762443542E-001;2.091351868816660E-001
1.851035505533218E-001;2.084942309013831E-001
1.882292032241821E-001;2.067337513948775E-001
1.912732124328613E-001;2.039749860660689E-001
1.944440752267838E-001;2.017557084532662E-001
1.975096464157104E-001;1.987909245577666E-001
2.005621492862701E-001;1.961629260771027E-001
2.037512511014938E-001;1.944813714961908E-001
2.066840827465057E-001;1.920033065515161E-001
2.097864001989365E-001;1.910652270065407E-001
2.128931432962418E-001;1.910960109058595E-001
2.159592211246490E-001;1.909110337889248E-001
2.190392911434174E-001;1.913780818900941E-001
2.220398485660553E-001;1.938150320403094E-001
2.251294404268265E-001;1.959740658680617E-001
2.282571792602539E-001;1.995054426057239E-001
2.312397509813309E-001;2.020675710389905E-001
2.343841642141342E-001;2.059699707421632E-001
2.375122159719467E-001;2.107530260741362E-001
2.405509054660797E-001;2.140196538528969E-001
2.437825500965118E-001;2.185133331124267E-001
2.466887682676315E-001;2.224589912667749E-001
2.498207539319992E-001;2.264347201569219E-001
2.529521882534027E-001;2.312282622365684E-001
2.559649348258972E-001;2.348454074408179E-001
2.590598464012146E-001;2.389796062588138E-001
2.621261179447174E-001;2.448798830232137E-001
2.652100026607513E-001;2.493318695573929E-001
2.682999968528748E-001;2.552319298772607E-001
2.713917195796967E-001;2.605766424873681E-001
2.744325399398804E-001;2.659397444607512E-001
2.776027023792267E-001;2.733555634103277E-001
2.805789113044739E-001;2.792753164434263E-001
2.836952805519104E-001;2.866142214120533E-001
2.867517173290253E-001;2.940648873013023E-001
2.897766828536987E-001;3.010462812831541E-001
2.930591404438019E-001;3.104218709248849E-001
2.959939837455750E-001;3.173588118675355E-001
2.990465164184570E-001;3.259318947586323E-001
3.021498620510101E-001;3.363508705897429E-001
3.051809668540955E-001;3.450224322243489E-001
3.083735704421997E-001;3.549625245460131E-001
3.113836944103241E-001;3.657219659753230E-001
3.144182562828064E-001;3.757686427649860E-001
3.176773190498352E-001;3.902978723970323E-001
3.206630945205688E-001;3.994990792374544E-001
3.238017559051514E-001;4.104525795701166E-001
3.268560469150543E-001;4.228545174980805E-001
3.299031853675842E-001;4.349678201848755E-001
3.330394625663757E-001;4.488859400820147E-001
3.360629677772522E-001;4.609604357151422E-001
3.391497731208801E-001;4.751033609909516E-001
3.422637283802032E-001;4.917277648897507E-001
3.452568352222443E-001;5.061091633632122E-001
3.484291434288025E-001;5.211786484713485E-001
3.514741957187653E-001;5.387424235848441E-001
3.545619845390320E-001;5.546302548293127E-001
3.576448857784271E-001;5.719178720696902E-001
3.606952726840973E-001;5.903569586166428E-001
3.637711405754089E-001;6.072814289385491E-001
3.669995367527008E-001;6.264751954404453E-001
3.699089586734772E-001;6.452095063035515E-001
3.730738162994385E-001;6.644179427148700E-001
3.761345744132996E-001;6.820754213673990E-001
3.791544437408447E-001;7.025473881080622E-001
3.823193013668060E-001;7.233840292510805E-001
3.853262662887573E-001;7.444417438411404E-001
3.883882164955139E-001;7.643704351812817E-001
3.915615677833557E-001;7.871300922046149E-001
3.945709764957428E-001;8.092454631433910E-001
3.976623415946960E-001;8.316184739021315E-001
4.006999433040619E-001;8.547518439092787E-001
4.038096964359283E-001;8.776708510980633E-001
4.069466292858124E-001;9.027291234954617E-001
4.100217521190643E-001;9.303869417436772E-001
4.130551218986511E-001;9.588028643567874E-001
4.161382913589478E-001;9.857230320264003E-001
4.191951751708984E-001;1.023522994977103E+000
4.223992228507996E-001;1.063192054882975E+000
4.254094362258911E-001;1.109528971538801E+000
4.284268319606781E-001;1.166864205585789E+000
4.316213428974152E-001;1.253596221361924E+000
4.345954060554504E-001;1.377421030133803E+000
4.377485811710358E-001;1.478272389482637E+000
4.408614933490753E-001;1.525718681624994E+000
4.438705444335938E-001;1.522967479840434E+000
4.470129013061523E-001;1.499437435264303E+000
4.501292705535889E-001;1.475107936620699E+000
4.530926644802094E-001;1.452605077906927E+000
4.562512934207916E-001;1.440262603974254E+000
4.591945111751556E-001;1.440274542795766E+000
4.623826742172241E-001;1.441847254024815E+000
4.654504954814911E-001;1.447875739361396E+000
4.684304296970367E-001;1.453052911399158E+000
4.716832637786865E-001;1.457643879580967E+000
4.746499061584473E-001;1.463242867225148E+000
4.777750670909882E-001;1.461727696316537E+000
4.808863103389740E-001;1.461003475547699E+000
4.839250743389130E-001;1.457578331657597E+000
4.870218336582184E-001;1.451346962046724E+000
4.900586903095245E-001;1.449762330903958E+000
4.931333661079407E-001;1.442562665799805E+000
4.962242841720581E-001;1.439807787818474E+000
4.992437064647675E-001;1.441593101548996E+000
5.023863315582275E-001;1.442342139353421E+000
5.055447816848755E-001;1.447147875993160E+000
5.085268020629883E-001;1.455301276143249E+000
5.116274952888489E-001;1.460123918896254E+000
5.147521495819092E-001;1.469556693143230E+000
5.178498625755310E-001;1.478447197371324E+000
5.208898782730103E-001;1.488249648334977E+000
5.239032506942749E-001;1.502384207522685E+000
5.269876122474670E-001;1.516837428513021E+000
5.301692485809326E-001;1.535431014444826E+000
5.331624150276184E-001;1.554338321261627E+000
5.362285971641541E-001;1.577528502622775E+000
5.393575429916382E-001;1.606114613272671E+000
5.423315763473511E-001;1.635407061031190E+000
5.455335378646851E-001;1.670845080896328E+000
5.486438870429993E-001;1.713631386869423E+000
5.516067147254944E-001;1.762166633464359E+000
5.547854304313660E-001;1.821620114947567E+000
5.577996969223022E-001;1.891148044622504E+000
5.609582066535950E-001;1.972213773285469E+000
5.639417767524719E-001;2.072838462186802E+000
5.670347809791565E-001;2.191199941602314E+000
5.702036023139954E-001;2.333631915770454E+000
5.732285976409912E-001;2.502373374514484E+000
5.762979984283447E-001;2.705206867995529E+000
5.793680548667908E-001;2.948624047446899E+000
5.824083089828491E-001;3.230642160519182E+000
5.855933427810669E-001;3.559438652532009E+000
5.886127352714539E-001;3.942920350558055E+000
5.916453003883362E-001;4.378416607954513E+000
5.948101282119751E-001;4.871038101717957E+000
5.979031324386597E-001;5.421068078796047E+000
6.010168790817261E-001;6.026445544394576E+000
6.040650606155396E-001;6.690899287536411E+000
6.070735454559326E-001;7.412707171682214E+000
6.101998090744019E-001;8.188147143060718E+000
6.131622791290283E-001;9.012184916336423E+000
6.162381172180176E-001;9.897682022360755E+000
6.194449663162231E-001;1.084042007071815E+001
6.224924921989441E-001;1.181918904924352E+001
6.255683302879334E-001;1.283740175431811E+001
6.287108659744263E-001;1.391413035983403E+001
6.317316293716431E-001;1.502339790832156E+001
6.349346041679382E-001;1.616720984122131E+001
6.379300355911255E-001;1.734292805553092E+001
6.410120725631714E-001;1.854878971575832E+001
6.441122293472290E-001;1.978055331790523E+001
6.471641063690186E-001;2.105127346046948E+001
6.502814292907715E-001;2.234278446609659E+001
6.532866358757019E-001;2.365874234193251E+001
6.563963890075684E-001;2.500127216672005E+001
6.595705747604370E-001;2.636124672267340E+001
6.625543832778931E-001;2.775253353791339E+001
6.656683683395386E-001;2.915830517958409E+001
6.687897443771362E-001;3.057910423032763E+001
6.717956066131592E-001;3.202942193219201E+001
6.749286651611328E-001;3.350122190124182E+001
6.779803037643433E-001;3.497982805931059E+001
6.809648275375366E-001;3.646054051286831E+001
6.841985583305359E-001;3.798912052119449E+001
6.872594952583313E-001;3.953489613516138E+001
6.902485489845276E-001;4.108541316926073E+001
6.934153437614441E-001;4.266781117605558E+001
6.963682174682617E-001;4.422610441911164E+001
6.995307207107544E-001;4.580710056519297E+001
7.026184797286987E-001;4.741079556442469E+001
7.057101130485535E-001;4.898786827706260E+001
7.088244557380676E-001;5.062139682458576E+001
7.118861079216003E-001;5.233553952723560E+001
7.149767875671387E-001;5.395416614913134E+001
7.180218696594238E-001;5.557545393630284E+001
7.210562825202942E-001;5.719525991862292E+001
7.241809368133545E-001;5.884699801423267E+001
7.272398471832275E-001;6.047058639678380E+001
7.303174138069153E-001;6.211233500726712E+001
7.334634661674500E-001;6.374738623751631E+001
7.364597916603088E-001;6.538872538446427E+001
7.395917177200317E-001;6.700432845430419E+001
7.426782846450806E-001;6.869748676945274E+001
7.456809878349304E-001;7.035310081713305E+001
7.488577961921692E-001;7.204295623709527E+001
7.518399953842163E-001;7.375787193915141E+001
7.549740076065063E-001;7.541353741670900E+001
7.580763697624207E-001;7.719587386047442E+001
7.611420750617981E-001;7.903146103359222E+001
7.642746567726135E-001;8.386726996883328E+001
7.672868967056274E-001;8.613613896238444E+001
7.703350782394409E-001;8.780930515033651E+001
7.734851241111755E-001;8.946159849345599E+001
7.765323519706726E-001;9.112389416546097E+001
7.795881628990173E-001;9.279780705157953E+001
7.827358841896057E-001;9.449818604466759E+001
7.857841253280640E-001;9.613991032271201E+001
7.888769507408142E-001;9.786358441132029E+001
7.919707298278809E-001;9.953170071336382E+001
7.950147986412048E-001;1.012538137901615E+002
7.981849312782288E-001;1.030248644937461E+002
8.011850714683533E-001;1.047790505178182E+002
8.042507171630859E-001;1.066301631223196E+002
8.073847889900208E-001;1.084686855282728E+002
8.103948831558228E-001;1.101061047168571E+002
8.134950399398804E-001;1.117181286229677E+002
8.165603280067444E-001;1.135555323337210E+002
8.197243213653564E-001;1.151942500630946E+002
8.227724432945251E-001;1.168371003313951E+002
8.258131742477417E-001;1.185797413485816E+002
8.289493918418884E-001;1.215522216095617E+002
8.319835066795349E-001;1.232444279882782E+002
8.350502252578735E-001;1.249437401952084E+002
8.381779193878174E-001;1.266331143117700E+002
8.411539793014526E-001;1.291279891969496E+002
8.443835973739624E-001;1.319088865461015E+002
8.473576903343201E-001;1.335430363387850E+002
8.504156470298767E-001;1.349307318239089E+002
8.535654544830322E-001;1.365724970455153E+002
8.565639853477478E-001;1.381371782014671E+002
8.596888780593872E-001;1.400100496380455E+002
8.628068566322327E-001;1.416522649745434E+002
8.657798171043396E-001;1.433918970450250E+002
8.689573407173157E-001;1.451166694539190E+002
8.720179796218872E-001;1.489212594764472E+002
8.750833868980408E-001;1.507190413856371E+002
8.781995773315430E-001;1.519658502361408E+002
8.813177943229675E-001;1.535558226071362E+002
8.844010233879089E-001;1.548991419074055E+002
8.874345421791077E-001;1.563906903016527E+002
8.904258608818054E-001;1.579956175162356E+002
8.936051726341248E-001;1.597006166690949E+002
8.966799378395081E-001;1.615061392392008E+002
8.987213373184204E-001;1.626262985683042E+002
8.997517228126526E-001;1.632760631458179E+002
