Ewe/V;"I/mA"
-2.328204512596130E-001;0.000000000000000E+000
1.560105532407761E-001;0.000000000000000E+000
9.967289119958878E-002;-5.360421091318130E-001
1.013011261820793E-001;-1.626797047311275E-001
1.044211834669113E-001;-1.235458877232869E-001
1.075288057327271E-001;-1.116176706368358E-001
1.105389073491097E-001;-1.024729928081523E-001
1.136831864714623E-001;-9.413726533734479E-002
1.167954653501511E-001;-8.636367145908530E-002
1.197801306843758E-001;-7.906229879492316E-002
1.229575872421265E-001;-7.224016160013091E-002
1.259275227785110E-001;-6.566202604468541E-002
1.291019022464752E-001;-5.952028609503612E-002
1.321662962436676E-001;-5.361972396099748E-002
1.351973563432693E-001;-4.785647495468082E-002
1.383844614028931E-001;-4.233549509251225E-002
1.413081139326096E-001;-3.705654242896700E-002
1.444248110055923E-001;-3.190158557347567E-002
1.475567817687988E-001;-2.697424748735291E-002
1.505764275789261E-001;-2.214969391974170E-002
1.536571681499481E-001;-1.758212086719074E-002
1.567566692829132E-001;-1.308858413734536E-002
1.598801910877228E-001;-8.686244420951818E-003
1.629962325096130E-001;-4.386119539521311E-003
1.660466641187668E-001;-3.328740064586105E-004
1.691574454307556E-001;3.802548325766243E-003
1.722123771905899E-001;7.707379691443861E-003
1.752475947141647E-001;1.156085349141281E-002
1.784113943576813E-001;1.514650795616426E-002
1.814077198505402E-001;1.890434769433108E-002
1.844597458839417E-001;2.260026356342378E-002
1.875879615545273E-001;2.623209298062018E-002
1.906754374504089E-001;2.972401598712693E-002
1.937319785356522E-001;3.327130423664448E-002
1.967761963605881E-001;3.662396708733440E-002
1.998710781335831E-001;4.000507514239549E-002
2.030148655176163E-001;4.325335102200246E-002
2.060852646827698E-001;4.661613919970498E-002
2.091239839792252E-001;4.986832207948649E-002
2.122775763273239E-001;5.312509702982982E-002
2.152575701475143E-001;5.636922868012384E-002
2.183535397052765E-001;5.934687754770551E-002
2.214823365211487E-001;6.240136600776558E-002
2.244856804609299E-001;6.558983439080546E-002
2.276276051998138E-001;6.832415670708902E-002
2.306440770626068E-001;7.157638406595712E-002
2.337559461593628E-001;7.461318215609769E-002
2.369504570960999E-001;7.763046526580042E-002
2.399965673685074E-001;8.057979239033397E-002
2.430123537778854E-001;8.350532169314540E-002
2.460984140634537E-001;8.610618817191523E-002
2.491996586322784E-001;8.902188519461562E-002
2.523072659969330E-001;9.181174818902349E-002
2.553656399250031E-001;9.454935315384128E-002
2.584207355976105E-001;9.739429605755756E-002
2.615007758140564E-001;1.002058475048957E-001
2.645584940910339E-001;1.043963630616702E-001
2.676704525947571E-001;1.066383674813962E-001
2.707399129867554E-001;1.091849630178510E-001
2.738338708877563E-001;1.119754536323663E-001
2.769084870815277E-001;1.148486905890771E-001
2.800076305866241E-001;1.178156581612052E-001
2.831045985221863E-001;1.205490594174843E-001
2.861709296703339E-001;1.233960783682608E-001
2.892054021358490E-001;1.260861070712331E-001
2.923766076564789E-001;1.288848844464960E-001
2.953927218914032E-001;1.314822762242085E-001
2.984402477741241E-001;1.343636509434429E-001
3.015308976173401E-001;1.370527303796754E-001
3.046003878116608E-001;1.398731776543239E-001
3.076867461204529E-001;1.427970786679134E-001
3.107869625091553E-001;1.466989332893740E-001
3.138386607170105E-001;1.504337989073719E-001
3.170117139816284E-001;1.527337382534997E-001
3.200674057006836E-001;1.549319939437417E-001
3.231601417064667E-001;1.577807196133854E-001
3.262450098991394E-001;1.610146502506478E-001
3.292937576770782E-001;1.641307791252098E-001
3.323494791984558E-001;1.673923820945262E-001
3.354558944702148E-001;1.707614613732193E-001
3.384534120559692E-001;1.740740005711969E-001
3.416426181793213E-001;1.775450691348766E-001
3.447047770023346E-001;1.807511265277544E-001
3.477613627910614E-001;1.840586825866497E-001
3.508372008800507E-001;1.877746779962703E-001
3.538741767406464E-001;1.913676565459907E-001
3.570450246334076E-001;1.956827836272033E-001
3.600975275039673E-001;1.991457098120217E-001
3.631924092769623E-001;2.032607283774719E-001
3.662964701652527E-001;2.075296034632912E-001
3.693016469478607E-001;2.114719275457626E-001
3.724760711193085E-001;2.157910998472978E-001
3.755433559417725E-001;2.201132906503230E-001
3.785057961940765E-001;2.250007587400011E-001
3.816632032394409E-001;2.301807173701080E-001
3.847213089466095E-001;2.342905458614428E-001
3.877088427543640E-001;2.396185188786930E-001
3.909425735473633E-001;2.457155773714019E-001
3.939039409160614E-001;2.523765452121047E-001
3.971436023712158E-001;2.577379645815160E-001
4.001827239990234E-001;2.629058295334876E-001
4.031758904457092E-001;2.693351469433072E-001
4.063393771648407E-001;2.764901190006257E-001
4.093762934207916E-001;2.829620215438067E-001
4.124224483966827E-001;2.905905158826450E-001
4.156137704849243E-001;2.979953985775063E-001
4.185708761215210E-001;3.099309539000585E-001
4.217314124107361E-001;3.260684956430677E-001
4.247961342334747E-001;3.524973958304429E-001
4.278512895107269E-001;4.032202174220094E-001
4.309515058994293E-001;4.925463112984794E-001
4.339446425437927E-001;6.187047968919797E-001
4.371164739131927E-001;7.136360969338136E-001
4.402075111865997E-001;7.611270726352082E-001
4.432165622711182E-001;8.020897125984945E-001
4.463156759738922E-001;8.595097601346104E-001
4.493926167488098E-001;9.209621718030547E-001
4.524991512298584E-001;9.866947572254388E-001
4.555615782737732E-001;1.047417601702964E+000
4.586264193058014E-001;1.095308972925697E+000
4.616821408271790E-001;1.135036311240061E+000
4.647833704948425E-001;1.169214842745861E+000
4.679010510444641E-001;1.200514564084131E+000
4.709795117378235E-001;1.234745715995103E+000
4.740362167358398E-001;1.271656008588330E+000
4.770926535129547E-001;1.312997670304551E+000
4.803224503993988E-001;1.362035045469066E+000
4.832530021667480E-001;1.413952232461740E+000
4.863374531269073E-001;1.471154115818615E+000
4.894428551197052E-001;1.535032866047861E+000
4.925250113010406E-001;1.602560635795849E+000
4.956224262714386E-001;1.674743924773797E+000
4.986873269081116E-001;1.756679170028758E+000
5.017471313476563E-001;1.845827313358056E+000
5.048505067825317E-001;1.942628190849955E+000
5.078465938568115E-001;2.045750059157676E+000
5.110381245613098E-001;2.159246826647433E+000
5.140917301177979E-001;2.281255785166529E+000
5.171241760253906E-001;2.409553149669456E+000
5.202730298042297E-001;2.553370559187115E+000
5.233075618743896E-001;2.707229820686855E+000
5.264356732368469E-001;2.881381282165068E+000
5.295290946960449E-001;3.077888727188104E+000
5.324904918670654E-001;3.285093515914138E+000
5.356330275535584E-001;3.498318482827877E+000
5.387344956398010E-001;3.713403149083518E+000
5.417327284812927E-001;3.921758604220493E+000
5.448732376098633E-001;4.125871770730420E+000
5.479256510734558E-001;4.323201669671493E+000
5.510683059692383E-001;4.514493669142510E+000
5.541303157806396E-001;4.713248552815287E+000
5.571892857551575E-001;4.909336502187209E+000
5.603582262992859E-001;5.127508913744990E+000
5.633260011672974E-001;5.377070831699861E+000
5.664421319961548E-001;5.665008451990424E+000
5.695422887802124E-001;6.005370466219617E+000
5.725915431976318E-001;6.398893922280607E+000
5.756822228431702E-001;6.849420713984031E+000
5.788404941558838E-001;7.367035632369067E+000
5.818327069282532E-001;7.948785166344550E+000
5.849213004112244E-001;8.598421143907618E+000
5.880289673805237E-001;9.315626318494793E+000
5.910232067108154E-001;1.008220320266787E+001
5.941911935806274E-001;1.092103804749453E+001
5.972821712493896E-001;1.181947479003836E+001
6.003682613372803E-001;1.277463016497757E+001
6.034101247787476E-001;1.378402030591583E+001
6.064255237579346E-001;1.483970192819680E+001
6.096163988113403E-001;1.593293342297824E+001
6.125972867012024E-001;1.706956779795644E+001
6.156550645828247E-001;1.826760871102419E+001
6.188495159149170E-001;1.950107970006999E+001
6.218735575675964E-001;2.076857413624674E+001
6.250203847885132E-001;2.208468518344938E+001
6.281291842460632E-001;2.341888240011472E+001
6.311094760894775E-001;2.478544960158621E+001
6.342679262161255E-001;2.620395307452327E+001
6.373324394226074E-001;2.765571604326058E+001
6.404439210891724E-001;2.911362963757921E+001
6.434859037399292E-001;3.060153305821677E+001
6.465309262275696E-001;3.214268852432623E+001
6.496910452842712E-001;3.367025107102472E+001
6.526920795440674E-001;3.521827446243492E+001
6.557329297065735E-001;3.676689584302494E+001
6.589135527610779E-001;3.836160825106117E+001
6.619015336036682E-001;3.996777338731856E+001
6.650430560112000E-001;4.161748937291679E+001
6.681276559829712E-001;4.328017086295074E+001
6.711639761924744E-001;4.493440208031757E+001
6.743553280830383E-001;4.662174558347647E+001
6.773315072059631E-001;4.830604583594473E+001
6.804019808769226E-001;4.996914189936876E+001
6.835403442382813E-001;5.167206554453341E+001
6.865715980529785E-001;5.339816376612936E+001
6.896947622299194E-001;5.517081379339663E+001
6.927614212036133E-001;5.688865759318787E+001
6.958160400390625E-001;5.857567429220194E+001
6.989078521728516E-001;6.026356105046750E+001
7.019262909889221E-001;6.197029701354177E+001
7.050573229789734E-001;6.367369031550265E+001
7.081489562988281E-001;6.544924480510304E+001
7.112247347831726E-001;6.724781316570716E+001
7.143365740776062E-001;6.893597886783255E+001
7.174229621887207E-001;7.072087226531676E+001
7.204327583312988E-001;7.251575211736804E+001
7.235544919967651E-001;7.434170657223353E+001
7.266314029693604E-001;7.630950914013188E+001
7.297166585922241E-001;7.825727943879724E+001
7.328180074691772E-001;7.998775469107807E+001
7.358641624450684E-001;8.188366040916924E+001
7.390164136886597E-001;8.355673062379901E+001
7.420879006385803E-001;8.533168765774806E+001
7.450915575027466E-001;8.726212103786816E+001
7.481748461723328E-001;8.919217343944410E+001
7.512798309326172E-001;9.133775146207233E+001
7.543476819992065E-001;9.313042131941370E+001
7.574659585952759E-001;9.490173916836841E+001
7.604979276657104E-001;9.667553908590276E+001
7.636026740074158E-001;9.838729189297771E+001
7.666572928428650E-001;1.003199872215014E+002
7.697120904922485E-001;1.024686070068381E+002
7.728862762451172E-001;1.044466378933123E+002
7.758328318595886E-001;1.064868326061264E+002
7.790001630783081E-001;1.087471312547733E+002
7.820575833320618E-001;1.122680728697446E+002
7.851365804672241E-001;1.149255579641999E+002
7.882229089736938E-001;1.168846722432791E+002
7.913365960121155E-001;1.189786044103298E+002
7.944043278694153E-001;1.210676319852278E+002
7.974811792373657E-001;1.231719132252646E+002
8.004816174507141E-001;1.251098841154821E+002
8.036242723464966E-001;1.269490008901535E+002
8.067373037338257E-001;1.285418059066928E+002
8.097677826881409E-001;1.305560195146113E+002
8.128877878189087E-001;1.325460291859758E+002
8.159667849540710E-001;1.402862281943771E+002
8.190670609474182E-001;1.428469676273537E+002
8.221491575241089E-001;1.444172661015435E+002
8.251730203628540E-001;1.463124118174574E+002
8.283420801162720E-001;1.478674950385064E+002
8.313117623329163E-001;1.499641554373000E+002
8.343675732612610E-001;1.516554290500187E+002
8.375685214996338E-001;1.536556520207580E+002
8.406348824501038E-001;1.552836610891803E+002
8.436575531959534E-001;1.572993032640384E+002
8.468128442764282E-001;1.593572322581513E+002
8.497788310050964E-001;1.614659517785217E+002
8.529083728790283E-001;1.629611602601617E+002
8.559894561767578E-001;1.646043186888960E+002
8.590971827507019E-001;1.668264659666979E+002
8.621819615364075E-001;1.710845962161876E+002
8.652222156524658E-001;1.726996933630672E+002
8.683298230171204E-001;1.748889476346869E+002
8.714055418968201E-001;1.765585273951274E+002
8.744612932205200E-001;1.780938237184180E+002
8.775010704994202E-001;1.796824502231541E+002
8.806651234626770E-001;1.815671430738930E+002
8.837056756019592E-001;1.834599250865649E+002
8.868324160575867E-001;1.853661031887021E+002
8.898531794548035E-001;1.869739473423201E+002
8.929401040077209E-001;1.893026387804011E+002
8.959761857986450E-001;1.912928333840648E+002
8.984694480895996E-001;1.925636606455773E+002
8.996944427490234E-001;1.931898520186139E+002
