Ewe/V;"I/mA"
5.753093361854553E-001;0.000000000000000E+000
4.667357802391052E-001;0.000000000000000E+000
6.995126008987427E-001;5.984445238113403E+001
6.976636052131653E-001;2.302943717636549E+002
6.945387125015259E-001;3.949667078447469E+002
6.915370225906372E-001;4.365235259623666E+002
6.884600520133972E-001;4.176466183494440E+002
6.852676272392273E-001;3.812123194211990E+002
6.823042631149292E-001;3.491549901275166E+002
6.791767477989197E-001;3.161885361398110E+002
6.760714054107666E-001;2.877587846330734E+002
6.729640960693359E-001;2.769568048265155E+002
6.699292063713074E-001;2.630432072409276E+002
6.669226288795471E-001;2.433783538149501E+002
6.637931466102600E-001;2.224162547552869E+002
6.606709361076355E-001;1.966744277186722E+002
6.576331853866577E-001;1.755829292844705E+002
6.544538736343384E-001;1.553128376835230E+002
6.514512300491333E-001;1.326325043167365E+002
6.483726501464844E-001;1.151113343014746E+002
6.452809572219849E-001;1.014624475434914E+002
6.422308683395386E-001;9.231898010744021E+001
6.390959024429321E-001;8.339811078906564E+001
6.361094713211060E-001;7.422495333647339E+001
6.329537034034729E-001;6.573676737363621E+001
6.298873424530029E-001;5.842668983677936E+001
6.268233060836792E-001;5.158154329350936E+001
6.236763000488281E-001;4.634261183916112E+001
6.206799745559692E-001;4.097372667571699E+001
6.175800561904907E-001;3.573034587954186E+001
6.144856214523315E-001;3.119067783354886E+001
6.114746332168579E-001;2.718898230522814E+001
6.083673238754272E-001;2.381820491390388E+001
6.052908301353455E-001;2.091421450935837E+001
6.021497845649719E-001;1.841787380169913E+001
5.990859866142273E-001;1.615129215009449E+001
5.959845781326294E-001;1.421661098936063E+001
5.928846597671509E-001;1.260004398301820E+001
5.898674130439758E-001;1.114730754400196E+001
5.867785811424255E-001;9.914404735245355E+000
5.836918354034424E-001;8.919305608977737E+000
5.806161165237427E-001;8.007661860221617E+000
5.774642229080200E-001;7.230303910138247E+000
5.744702816009521E-001;6.553435637817088E+000
5.712450146675110E-001;5.980754107808522E+000
5.682598352432251E-001;5.673412657465235E+000
5.652057528495789E-001;5.406673801803606E+000
5.621421337127686E-001;4.912179404733301E+000
5.591040253639221E-001;4.549703219106959E+000
5.559652447700500E-001;4.261454551812992E+000
5.529543161392212E-001;4.004619983420731E+000
5.499207377433777E-001;3.775927170846359E+000
5.467424392700195E-001;3.581746412754669E+000
5.436967015266418E-001;3.404079514009005E+000
5.405535697937012E-001;3.237566710228149E+000
5.375185608863831E-001;3.074528797917935E+000
5.344160199165344E-001;2.945720622732267E+000
5.313368439674377E-001;2.795198340463983E+000
5.283259153366089E-001;2.653995365545647E+000
5.251376628875732E-001;2.534148692340225E+000
5.220741033554077E-001;2.391633766725054E+000
5.190535783767700E-001;2.268079239414718E+000
5.158796906471252E-001;2.135891360707788E+000
5.129292607307434E-001;2.004908795864637E+000
5.098331570625305E-001;1.881209812115628E+000
5.066806077957153E-001;1.748423310046007E+000
5.036266446113586E-001;1.628012970612950E+000
5.004997253417969E-001;1.483952377051592E+000
4.974837303161621E-001;1.371851311511735E+000
4.943547546863556E-001;1.226997500012637E+000
4.913097321987152E-001;1.104142788109505E+000
4.883136153221130E-001;9.728165156108313E-001
4.850606620311737E-001;8.313854388077959E-001
4.821240305900574E-001;7.086932125148797E-001
4.789907038211823E-001;5.612296384133053E-001
4.759595692157745E-001;4.271377574657658E-001
4.728712141513824E-001;2.817158393577658E-001
4.697214365005493E-001;1.248023467773769E-001
4.667255282402039E-001;-1.848377546856622E-002
4.635453224182129E-001;-1.810907175214780E-001
4.605322480201721E-001;-3.505503256291809E-001
4.574236273765564E-001;-5.089109350441312E-001
4.543635845184326E-001;-6.402557024235254E-001
4.513109326362610E-001;-7.650065161838686E-001
4.481963217258453E-001;-8.464591756787385E-001
4.451928138732910E-001;-8.942751455371933E-001
4.420939683914185E-001;-9.257912266986423E-001
4.388877451419830E-001;-9.759726766284356E-001
4.359340965747833E-001;-9.566892482144915E-001
4.328404963016510E-001;-9.276392343046354E-001
4.297362267971039E-001;-8.883505500533488E-001
4.267069101333618E-001;-8.371212406609896E-001
4.235441684722900E-001;-7.801184873326790E-001
4.204706549644470E-001;-7.028485732506358E-001
4.174067080020905E-001;-6.154518376693243E-001
4.143396615982056E-001;-5.414207056825227E-001
4.111076593399048E-001;-4.533475519877150E-001
4.078903496265411E-001;-3.704845046686540E-001
4.048325717449188E-001;-3.013819697896274E-001
4.017167985439301E-001;-2.265493853826391E-001
3.985633850097656E-001;-1.920720815815462E-001
3.955864906311035E-001;-1.711215056517181E-001
3.924028277397156E-001;-1.554509947024338E-001
3.893676102161407E-001;-1.438274471952630E-001
3.863281607627869E-001;-1.342788960294981E-001
3.831668198108673E-001;-1.305220186149487E-001
3.800870478153229E-001;-1.290027808633301E-001
3.770263791084290E-001;-1.274691675878631E-001
3.739731311798096E-001;-1.265675450775712E-001
3.709622323513031E-001;-1.239739979862127E-001
3.677468597888947E-001;-1.120254375685121E-001
3.647317290306091E-001;-8.572122995439635E-002
3.616530299186707E-001;-6.298880159796449E-002
3.585382997989655E-001;-4.537680682815798E-002
3.555020391941071E-001;-2.935198146851693E-002
3.524035811424255E-001;-1.824228679458650E-002
3.493463099002838E-001;-7.241165640546020E-003
3.463011980056763E-001;1.320509265676397E-003
3.431755900382996E-001;6.581878640239062E-003
3.401221930980682E-001;1.003196006402864E-002
3.369518816471100E-001;1.426435057446684E-002
3.338962197303772E-001;1.751276527649115E-002
3.309420943260193E-001;1.849395636012877E-002
3.277254998683929E-001;2.009591133650468E-002
3.246740698814392E-001;2.185243306888573E-002
3.216127157211304E-001;2.356842506932125E-002
3.184778690338135E-001;2.530359711756086E-002
3.154031336307526E-001;2.648548754638991E-002
3.123548626899719E-001;2.784006032602965E-002
3.092494010925293E-001;2.980357465526873E-002
3.062456548213959E-001;3.022378364651002E-002
3.030532300472260E-001;3.019852101415882E-002
3.000783026218414E-001;3.017018053154397E-002
2.969217598438263E-001;3.008333450987091E-002
2.938247323036194E-001;2.989927877033344E-002
2.908186912536621E-001;2.972249584304076E-002
2.877621650695801E-001;2.966244685934359E-002
2.846757471561432E-001;2.936668044344337E-002
2.815962731838226E-001;2.891504820560231E-002
2.784096300601959E-001;2.841975432351890E-002
2.754599452018738E-001;2.792294887049419E-002
2.722823917865753E-001;2.757304181494433E-002
2.692206203937531E-001;2.711826615581309E-002
2.662038803100586E-001;2.657179058119513E-002
2.630697786808014E-001;2.598597357418386E-002
2.599684894084930E-001;2.522713212631705E-002
2.569435834884644E-001;2.458850042488264E-002
2.537628412246704E-001;2.385838535077649E-002
2.507894933223724E-001;2.334094918191865E-002
2.476938962936401E-001;2.271496519743479E-002
2.445884048938751E-001;2.242649828085591E-002
2.415623962879181E-001;2.118181828875781E-002
2.383936941623688E-001;2.027498385485967E-002
2.353397756814957E-001;1.903494684590357E-002
2.322331815958023E-001;1.810297817872580E-002
2.291458100080490E-001;1.727793953874696E-002
2.261155098676682E-001;1.637777845197336E-002
2.230693399906158E-001;1.547451345506659E-002
2.199033498764038E-001;1.437992113176895E-002
2.168806493282318E-001;1.350508431798313E-002
2.137974053621292E-001;1.236325799132779E-002
2.107200771570206E-001;1.133826498110371E-002
2.076192647218704E-001;1.029259621489306E-002
2.045190483331680E-001;9.447767097766069E-003
2.014814168214798E-001;8.412768482006866E-003
1.995969712734222E-001;8.215637577276447E-003
1.995778977870941E-001;-2.139576003690694E-002
