"Ewe/V";"I/mA"
4.856230914592743E-001;0.000000000000000E+000
3.978447020053864E-001;0.000000000000000E+000
6.995177865028381E-001;4.940153986612961E+001
6.978877782821655E-001;2.921027542515476E+001
6.947252750396729E-001;2.096891999767760E+001
6.916610002517700E-001;1.873298002503367E+001
6.886252164840698E-001;1.751399284867841E+001
6.854271888732910E-001;1.674713632069120E+001
6.824116706848145E-001;1.624658917362422E+001
6.793102025985718E-001;1.595429302618555E+001
6.762656569480896E-001;1.577457531242615E+001
6.731915473937988E-001;1.568971004970786E+001
6.700578331947327E-001;1.578035528773702E+001
6.670138239860535E-001;1.587677139086804E+001
6.639502048492432E-001;1.604366362636148E+001
6.608845591545105E-001;1.630178696144094E+001
6.577923893928528E-001;1.656408178404746E+001
6.546764373779297E-001;1.687339213507775E+001
6.516398191452026E-001;1.724521363795554E+001
6.485427618026733E-001;1.763591818648405E+001
6.455055475234985E-001;1.802779022846667E+001
6.424459218978882E-001;1.841287937099310E+001
6.392652988433838E-001;1.879158735459998E+001
6.363032460212708E-001;1.914414065428360E+001
6.331441998481750E-001;1.947195770700819E+001
6.301082968711853E-001;1.977123192886188E+001
6.269624233245850E-001;2.002914390228167E+001
6.238548755645752E-001;2.031162689339607E+001
6.208879351615906E-001;2.052654083586728E+001
6.177516579627991E-001;2.066335616158119E+001
6.147364974021912E-001;2.078185913895226E+001
6.115494966506958E-001;2.086583860163236E+001
6.085392236709595E-001;2.091171480963095E+001
6.055243015289307E-001;2.091076313147559E+001
6.023099422454834E-001;2.087570052351100E+001
5.992701649665833E-001;2.079644915831454E+001
5.962337255477905E-001;2.069119205004893E+001
5.931115150451660E-001;2.055990096870624E+001
5.900655984878540E-001;2.039420861825835E+001
5.869689583778381E-001;2.020666343082567E+001
5.838750600814819E-001;1.999566264196397E+001
5.808076262474060E-001;1.977049023858697E+001
5.776359438896179E-001;1.951265906140220E+001
5.745707750320435E-001;1.922738589298069E+001
5.715563893318176E-001;1.892739543062726E+001
5.684916377067566E-001;1.858564422670554E+001
5.654006004333496E-001;1.824223316865690E+001
5.622324347496033E-001;1.787101881552110E+001
5.592169165611267E-001;1.748622767356687E+001
5.561391115188599E-001;1.708521042086105E+001
5.530422329902649E-001;1.667050985684250E+001
5.500748157501221E-001;1.624839201370889E+001
5.468440055847168E-001;1.581655435618620E+001
5.438835024833679E-001;1.537520138027770E+001
5.407558679580688E-001;1.491744176527777E+001
5.376926660537720E-001;1.446424882311992E+001
5.346035361289978E-001;1.403798574379207E+001
5.313545465469360E-001;1.358900530553412E+001
5.284547805786133E-001;1.312427153495393E+001
5.253092050552368E-001;1.266242057039076E+001
5.222576260566711E-001;1.221235626475723E+001
5.191957354545593E-001;1.175168531974506E+001
5.160540938377380E-001;1.129611091783333E+001
5.130579471588135E-001;1.083297947519924E+001
5.099037289619446E-001;1.037863151465668E+001
5.069287419319153E-001;9.922959236919866E+000
5.037487745285034E-001;9.488902223451930E+000
5.007199048995972E-001;9.064922618317723E+000
4.977082610130310E-001;8.636304504404507E+000
4.945033490657806E-001;8.213940870106029E+000
4.914316534996033E-001;7.781332762789503E+000
4.884158968925476E-001;7.354097961888058E+000
4.852980077266693E-001;6.937495026390863E+000
4.822371304035187E-001;6.531288164619975E+000
4.791290760040283E-001;6.142192660479765E+000
4.760933518409729E-001;5.749837130304044E+000
4.730187952518463E-001;5.361066272527822E+000
4.698721766471863E-001;4.993327673019014E+000
4.667497873306274E-001;4.606369960669142E+000
4.633495807647705E-001;4.231048964207588E+000
4.603498876094818E-001;3.895275226178505E+000
4.573587477207184E-001;3.570304491106789E+000
4.542103111743927E-001;3.256651350379130E+000
4.511255919933319E-001;2.951935071347883E+000
4.480998218059540E-001;2.663745704154074E+000
4.449992775917053E-001;2.391685885114967E+000
4.419150948524475E-001;2.126153701598644E+000
4.387730062007904E-001;1.877428588018077E+000
4.357430040836334E-001;1.644413729382173E+000
4.326183497905731E-001;1.426451059065412E+000
4.295742809772491E-001;1.221605815332975E+000
4.265230596065521E-001;1.036463392265439E+000
4.234198927879334E-001;8.650436272374016E-001
4.203951656818390E-001;7.063064703977560E-001
4.172439873218536E-001;5.612070545461847E-001
4.141872823238373E-001;4.367865220270852E-001
4.111327230930328E-001;3.212685492622613E-001
4.079803526401520E-001;2.084569690890787E-001
4.049924015998840E-001;1.072573918077770E-001
4.018056094646454E-001;2.020085280390438E-002
3.988585770130157E-001;-8.214628426922310E-002
3.957758247852325E-001;-1.755261688656624E-001
3.925327062606812E-001;-2.823982275794399E-001
3.895880877971649E-001;-4.174780273491041E-001
3.864320516586304E-001;-5.580712433689454E-001
3.833381235599518E-001;-7.031908798195694E-001
3.803036510944366E-001;-7.511216583390965E-001
3.771878182888031E-001;-6.138700634628531E-001
3.742130994796753E-001;-3.411747161962015E-001
3.710785210132599E-001;-2.205629050321833E-001
3.680066764354706E-001;-1.578842425716280E-001
3.649977445602417E-001;-1.277799149823585E-001
3.617738187313080E-001;-1.083926318532006E-001
3.588519990444183E-001;-9.435938014665135E-002
3.557023108005524E-001;-8.410125253465009E-002
3.526288866996765E-001;-7.623461094333828E-002
3.494950532913208E-001;-7.015895265908023E-002
3.463740050792694E-001;-6.514958599374965E-002
3.434076607227325E-001;-6.101571545316353E-002
3.402208685874939E-001;-5.757995743727329E-002
3.371845781803131E-001;-5.467774291369226E-002
3.341875076293945E-001;-5.217908670953078E-002
3.310505151748657E-001;-4.993750676901687E-002
3.280682265758514E-001;-4.798286832939613E-002
3.248232007026672E-001;-4.627841323014635E-002
3.218123018741608E-001;-4.475121441218377E-002
3.188110291957855E-001;-4.342746991044188E-002
3.155383467674255E-001;-4.227496755727339E-002
3.125857710838318E-001;-4.116991208174153E-002
3.093555569648743E-001;-4.010697437790695E-002
3.063648045063019E-001;-3.913307074519667E-002
3.032977581024170E-001;-3.832342092050611E-002
3.000961244106293E-001;-3.756544482660351E-002
2.972357571125031E-001;-3.686609064338897E-002
2.940754592418671E-001;-3.626423974349025E-002
2.910444736480713E-001;-3.565777599864661E-002
2.878608703613281E-001;-3.510721492349106E-002
2.847556769847870E-001;-3.469996453269109E-002
2.817797958850861E-001;-3.441211798504074E-002
2.786364555358887E-001;-3.409762991025750E-002
2.755174636840820E-001;-3.409887755690710E-002
2.724801301956177E-001;-3.370669418215932E-002
2.694396078586578E-001;-3.332189490171034E-002
2.664319276809692E-001;-3.305463363638506E-002
2.632228732109070E-001;-3.271523280799626E-002
2.601621747016907E-001;-3.241821906672193E-002
2.570188343524933E-001;-3.212979391771895E-002
2.540005743503571E-001;-3.177568192628466E-002
2.509409487247467E-001;-3.146422657119854E-002
2.477636933326721E-001;-3.132101631638018E-002
2.448227852582932E-001;-3.106853290596523E-002
2.418045252561569E-001;-3.089241321538589E-002
2.386760264635086E-001;-3.055593808036117E-002
2.355655133724213E-001;-3.034376583989179E-002
2.324105203151703E-001;-3.008706196216604E-002
2.294113487005234E-001;-2.995545906475255E-002
2.262192070484161E-001;-2.991063250507309E-002
2.232443988323212E-001;-2.986192962572221E-002
2.200756371021271E-001;-2.967769407346132E-002
2.169895321130753E-001;-2.961131611439116E-002
2.140592038631439E-001;-2.963303369052317E-002
2.108787596225739E-001;-2.970868961411721E-002
2.078096270561218E-001;-2.983887022540344E-002
2.047828584909439E-001;-2.976581407073198E-002
2.015886306762695E-001;-2.985877911246349E-002
2.002237141132355E-001;-2.985024003750958E-002
1.999948024749756E-001;-5.152354903381184E-002
