"Ewe/V";"I/mA"
-2.215834408998489E-001;0.000000000000000E+000
9.702102839946747E-002;0.000000000000000E+000
9.961565583944321E-002;1.487320332045231E-002
1.013287603855133E-001;8.466070099245743E-003
1.044158935546875E-001;1.648343874410402E-002
1.074705198407173E-001;2.611157695938487E-002
1.106819957494736E-001;3.610569260611093E-002
1.136820539832115E-001;4.620989427476611E-002
1.166852340102196E-001;5.609149647300371E-002
1.198278218507767E-001;6.589926085777648E-002
1.228463500738144E-001;7.550715938496699E-002
1.259985268115997E-001;8.511290230313273E-002
1.290478557348251E-001;9.425229896621490E-002
1.320899575948715E-001;1.031120983547791E-001
1.353680193424225E-001;1.118437449515717E-001
1.382413804531097E-001;1.200920864396912E-001
1.413938403129578E-001;1.282305706459765E-001
1.445117145776749E-001;1.363898106978563E-001
1.474518775939941E-001;1.440921226095164E-001
1.506336778402328E-001;1.515105110801449E-001
1.537239700555801E-001;1.588948169763005E-001
1.567005068063736E-001;1.659367775495721E-001
1.599204689264297E-001;1.729494810335728E-001
1.629824787378311E-001;1.796661595332010E-001
1.660275906324387E-001;1.861767347482215E-001
1.691839396953583E-001;1.932111791777937E-001
1.721688657999039E-001;1.994588738069130E-001
1.752910614013672E-001;2.055566368239030E-001
1.784156411886215E-001;2.117260558019896E-001
1.813759207725525E-001;2.176600728359324E-001
1.844916194677353E-001;2.236307121496750E-001
1.875455677509308E-001;2.295087963134348E-001
1.907210201025009E-001;2.351341171610617E-001
1.937755048274994E-001;2.405898481492446E-001
1.967761963605881E-001;2.472288668770570E-001
1.999728232622147E-001;2.526275640635074E-001
2.030688375234604E-001;2.577989348003489E-001
2.060460448265076E-001;2.629960491378013E-001
2.091854363679886E-001;2.681128873718457E-001
2.122723162174225E-001;2.729983316121498E-001
2.152936160564423E-001;2.779737648459872E-001
2.183577716350555E-001;2.827859466706952E-001
2.214208692312241E-001;2.874803266326558E-001
2.246001809835434E-001;2.920798920869601E-001
2.276583313941956E-001;2.965736920437121E-001
2.307182848453522E-001;3.008995904391440E-001
2.338268309831619E-001;3.054252096941052E-001
2.368402332067490E-001;3.101120263550305E-001
2.399913072586060E-001;3.149393573158221E-001
2.431575655937195E-001;3.203858236301746E-001
2.461312860250473E-001;3.240818483938259E-001
2.492356896400452E-001;3.271601552394179E-001
2.522277832031250E-001;3.317705154794695E-001
2.552724182605743E-001;3.364139920058795E-001
2.584164738655090E-001;3.415634436250832E-001
2.614615857601166E-001;3.462773762988682E-001
2.645954787731171E-001;3.529423486896411E-001
2.676768302917480E-001;3.589306484215784E-001
2.706561386585236E-001;3.643070746948766E-001
2.739388942718506E-001;3.685666557865490E-001
2.769657075405121E-001;3.734953986020773E-001
2.799323797225952E-001;3.783596493655761E-001
2.830208837985992E-001;3.816735535688727E-001
2.861284911632538E-001;3.847918682685725E-001
2.893187999725342E-001;3.883618672965587E-001
2.924274504184723E-001;3.924709922272229E-001
2.953089475631714E-001;3.962729933276532E-001
2.985303401947021E-001;4.005857634234817E-001
3.015266358852386E-001;4.057419693938567E-001
3.046077787876129E-001;4.123933654499412E-001
3.077747225761414E-001;4.166770390261965E-001
3.107222914695740E-001;4.174658613180546E-001
3.138684034347534E-001;4.200767340738341E-001
3.169714510440826E-001;4.251070631917113E-001
3.199868500232697E-001;4.292496618009869E-001
3.232216536998749E-001;4.348176146072444E-001
3.262025713920593E-001;4.388321407755709E-001
3.293350934982300E-001;4.440065655654326E-001
3.324914574623108E-001;4.489972637336179E-001
3.354537785053253E-001;4.553794467406762E-001
3.385625779628754E-001;4.604968936179263E-001
3.416129350662231E-001;4.619820420781234E-001
3.446921706199646E-001;4.651123642200083E-001
3.477921485900879E-001;4.693004957064879E-001
3.508372008800507E-001;4.732850455450264E-001
3.539440929889679E-001;4.771806164976891E-001
3.570863306522369E-001;4.805664683678454E-001
3.600593507289886E-001;4.839465954574820E-001
3.632305860519409E-001;4.907767458981642E-001
3.663102388381958E-001;5.014653976152452E-001
3.693535923957825E-001;5.046655772021964E-001
3.724696338176727E-001;5.078940455658776E-001
3.754606544971466E-001;5.128838862098597E-001
3.785608410835266E-001;5.207735219246565E-001
3.816928565502167E-001;5.356590484871919E-001
3.847106397151947E-001;5.532003123816738E-001
3.877682089805603E-001;5.630468845362238E-001
3.908853232860565E-001;5.672361158266837E-001
3.940130472183228E-001;5.662520393362707E-001
3.971064686775208E-001;5.663089322440324E-001
4.001117348670959E-001;5.738659442739191E-001
4.032829701900482E-001;5.845325728421029E-001
4.064020216464996E-001;5.930318617840857E-001
4.093688428401947E-001;5.998887772698751E-001
4.124658405780792E-001;6.085155948809149E-001
4.155607819557190E-001;6.198041655128321E-001
4.185093939304352E-001;6.372437287548998E-001
4.217547774314880E-001;6.524873942076086E-001
4.248553514480591E-001;6.791625564077073E-001
4.278036057949066E-001;7.724799518456957E-001
4.309653043746948E-001;9.022783825220184E-001
4.339149892330170E-001;1.012393252264312E+000
4.370772838592529E-001;1.086524746051742E+000
4.401895403862000E-001;1.089036455783145E+000
4.432155191898346E-001;1.068861412831208E+000
4.463866055011749E-001;1.066803010387755E+000
4.494138062000275E-001;1.072726342068298E+000
4.525563418865204E-001;1.081023119511844E+000
4.555095732212067E-001;1.093776821877825E+000
4.586062729358673E-001;1.107729961704148E+000
4.617923200130463E-001;1.123406896123801E+000
4.648416340351105E-001;1.135780798310040E+000
4.678152501583099E-001;1.147531637190016E+000
4.710155129432678E-001;1.161287475389475E+000
4.740287959575653E-001;1.180726570214226E+000
4.771509170532227E-001;1.203748218933779E+000
4.802154302597046E-001;1.221932565236340E+000
4.832721352577209E-001;1.244938505985656E+000
4.864136874675751E-001;1.273733122915889E+000
4.893866777420044E-001;1.307794134613609E+000
4.925207495689392E-001;1.348437028142520E+000
4.956214129924774E-001;1.392550161862786E+000
4.986416995525360E-001;1.438865859410004E+000
5.018128752708435E-001;1.494553474255673E+000
5.048707127571106E-001;1.558826340197139E+000
5.079229474067688E-001;1.625883769090418E+000
5.110381841659546E-001;1.699796100626243E+000
5.140895843505859E-001;1.789213439173649E+000
5.171781778335571E-001;1.909156546067749E+000
5.203536152839661E-001;2.036904634385053E+000
5.233562588691711E-001;2.178783092380407E+000
5.264589190483093E-001;2.358157838024898E+000
5.295375585556030E-001;2.587588616301900E+000
5.325551629066467E-001;2.850312193086022E+000
5.356627106666565E-001;3.162404553617529E+000
5.386877655982971E-001;3.509464175513003E+000
5.418366193771362E-001;3.858163598827333E+000
5.448679327964783E-001;4.184521747257676E+000
5.479383468627930E-001;4.454182450735189E+000
5.510756969451904E-001;4.662315974529662E+000
5.541356801986694E-001;4.834040537141114E+000
5.572170019149780E-001;4.987780424064610E+000
5.603476762771606E-001;5.196815362794069E+000
5.633281469345093E-001;5.487792491644959E+000
5.664918422698975E-001;5.871010249572599E+000
5.696175694465637E-001;6.366005268240031E+000
5.725396871566772E-001;6.946856375077587E+000
5.756907463073730E-001;7.619751998961192E+000
5.787801146507263E-001;8.382688263008703E+000
5.818201303482056E-001;9.215605327130220E+000
5.849870443344116E-001;1.012520279707144E+001
5.880172252655029E-001;1.112412299999684E+001
5.911481976509094E-001;1.217244789512191E+001
5.942367911338806E-001;1.327185025746627E+001
5.972005724906921E-001;1.441297413631550E+001
6.003343462944031E-001;1.560805171481337E+001
6.033677458763123E-001;1.685544080671855E+001
6.064753532409668E-001;1.812896018192794E+001
6.096153855323792E-001;1.945019602748039E+001
6.126884818077087E-001;2.078097116224137E+001
6.157431602478027E-001;2.216653225826011E+001
6.188219785690308E-001;2.358281721067891E+001
6.218417286872864E-001;2.501509795330588E+001
6.249662637710571E-001;2.648018683142851E+001
6.280495524406433E-001;2.798606802786219E+001
6.311359405517578E-001;2.951677653948195E+001
6.342986822128296E-001;3.106830971818916E+001
6.372933387756348E-001;3.264507741377201E+001
6.404195427894592E-001;3.421783782355911E+001
6.435070633888245E-001;3.580621071801738E+001
6.465711593627930E-001;3.741099681594460E+001
6.496986150741577E-001;3.905899269823806E+001
6.526582241058350E-001;4.069633142047141E+001
6.557806134223938E-001;4.232658005896298E+001
6.589357852935791E-001;4.399707533851449E+001
6.619693040847778E-001;4.571411076904735E+001
6.649603247642517E-001;4.739366830341839E+001
6.680693030357361E-001;4.911372264172030E+001
6.711958050727844E-001;5.082463163599004E+001
6.743171215057373E-001;5.255401707001033E+001
6.773589849472046E-001;5.427318846455501E+001
6.804560422897339E-001;5.604979161250105E+001
6.835255026817322E-001;5.774861026247459E+001
6.865662932395935E-001;5.947079450550936E+001
6.896895170211792E-001;6.127160789277275E+001
6.927476525306702E-001;6.297608323373788E+001
6.957895159721375E-001;6.469988589585705E+001
6.989787817001343E-001;6.640635778199135E+001
7.020122408866882E-001;6.810409771911941E+001
7.050752639770508E-001;6.989938408486483E+001
7.081617116928101E-001;7.164062368253917E+001
7.112269401550293E-001;7.358804139856738E+001
7.143355607986450E-001;7.527073903053611E+001
7.173732519149780E-001;7.692878490493081E+001
7.204698920249939E-001;7.856088094945756E+001
7.236201763153076E-001;8.030384328927425E+001
7.266250252723694E-001;8.216852453444983E+001
7.297155857086182E-001;8.436638153666945E+001
7.328000664710999E-001;8.651872219941524E+001
7.358355522155762E-001;8.844113924548887E+001
7.389253377914429E-001;9.023831949197552E+001
7.419978380203247E-001;9.396512797916603E+001
7.450969219207764E-001;9.635870017289767E+001
7.481738328933716E-001;9.806582447556070E+001
7.513454556465149E-001;9.978777879070049E+001
7.543306946754456E-001;1.014959878973490E+002
7.574987411499023E-001;1.032076207499106E+002
7.604354023933411E-001;1.050012738374188E+002
7.636641860008240E-001;1.066978714350021E+002
7.667325139045715E-001;1.083538944658440E+002
7.697545289993286E-001;1.104648693081781E+002
7.728925943374634E-001;1.120228238068300E+002
7.759355902671814E-001;1.137411518709091E+002
7.789842486381531E-001;1.156106219426956E+002
7.820861935615540E-001;1.173452386271255E+002
7.851100564002991E-001;1.199134939652695E+002
7.882431149482727E-001;1.220838512815853E+002
7.912983894348145E-001;1.239955712910764E+002
7.944382429122925E-001;1.278203497239779E+002
7.975203990936279E-001;1.298024712414065E+002
8.005239963531494E-001;1.313807762542210E+002
8.036941885948181E-001;1.329125935377642E+002
8.067403435707092E-001;1.348639799622867E+002
8.097932338714600E-001;1.367767825112087E+002
8.128739595413208E-001;1.384349720126115E+002
8.160038590431213E-001;1.403288591042707E+002
8.191093802452087E-001;1.420446984592809E+002
8.221756815910339E-001;1.434879315139484E+002
8.252090215682983E-001;1.453218570402832E+002
8.282795548439026E-001;1.469411291341098E+002
8.313530683517456E-001;1.485665679642370E+002
8.343877792358398E-001;1.503421390787921E+002
8.375430107116699E-001;1.518453474118342E+002
8.405617475509644E-001;1.549006908003062E+002
8.436776995658875E-001;1.597277230782468E+002
8.468118309974670E-001;1.623644893518026E+002
8.498625755310059E-001;1.638576698555103E+002
8.529454469680786E-001;1.655435007580606E+002
8.559841513633728E-001;1.671370604354474E+002
8.590812087059021E-001;1.688463553612205E+002
8.621459603309631E-001;1.704387925506458E+002
8.651915192604065E-001;1.719108471435798E+002
8.683149814605713E-001;1.735592937410051E+002
8.714182972908020E-001;1.752002423982234E+002
8.744761943817139E-001;1.770186621501285E+002
8.775816559791565E-001;1.787000713955836E+002
8.805962800979614E-001;1.801979550378842E+002
8.837376236915588E-001;1.819221983372374E+002
8.868271708488464E-001;1.835098626622757E+002
8.898828029632568E-001;1.850688287249025E+002
8.929389715194702E-001;1.870790550364421E+002
8.960588574409485E-001;1.886412268007584E+002
8.985552787780762E-001;1.903303219586248E+002
8.995418548583984E-001;1.910391720952214E+002
