Ewe/V;"I/mA"
2.193441800773144E-002;0.000000000000000E+000
4.669296741485596E-002;0.000000000000000E+000
6.643881648778915E-002;0.000000000000000E+000
8.286507427692413E-002;0.000000000000000E+000
9.738351404666901E-002;0.000000000000000E+000
1.099559888243675E-001;0.000000000000000E+000
1.213265433907509E-001;0.000000000000000E+000
1.320293694734573E-001;0.000000000000000E+000
1.410723924636841E-001;0.000000000000000E+000
1.500963419675827E-001;0.000000000000000E+000
1.576703488826752E-001;0.000000000000000E+000
1.655114591121674E-001;0.000000000000000E+000
1.720934063196182E-001;0.000000000000000E+000
1.784464120864868E-001;0.000000000000000E+000
1.847421973943710E-001;0.000000000000000E+000
1.901985406875610E-001;0.000000000000000E+000
1.957693397998810E-001;0.000000000000000E+000
2.005770206451416E-001;0.000000000000000E+000
2.052511572837830E-001;0.000000000000000E+000
2.098489850759506E-001;0.000000000000000E+000
2.135692238807678E-001;0.000000000000000E+000
2.179571837186813E-001;0.000000000000000E+000
2.217918932437897E-001;0.000000000000000E+000
2.249397784471512E-001;0.000000000000000E+000
2.288126349449158E-001;0.000000000000000E+000
2.318460494279861E-001;0.000000000000000E+000
2.352801114320755E-001;0.000000000000000E+000
2.382944524288177E-001;0.000000000000000E+000
2.406601458787918E-001;0.000000000000000E+000
2.435600161552429E-001;0.000000000000000E+000
2.460974007844925E-001;0.000000000000000E+000
2.489400357007980E-001;0.000000000000000E+000
2.512103319168091E-001;0.000000000000000E+000
2.531372308731079E-001;0.000000000000000E+000
2.556937038898468E-001;0.000000000000000E+000
2.574488818645477E-001;0.000000000000000E+000
2.600244283676147E-001;0.000000000000000E+000
2.617796063423157E-001;0.000000000000000E+000
2.634584903717041E-001;0.000000000000000E+000
2.655761539936066E-001;0.000000000000000E+000
2.670642435550690E-001;0.000000000000000E+000
2.690865397453308E-001;0.000000000000000E+000
2.705937027931213E-001;0.000000000000000E+000
2.719482481479645E-001;0.000000000000000E+000
2.737606763839722E-001;0.000000000000000E+000
2.746954858303070E-001;0.000000000000000E+000
2.767177820205688E-001;0.000000000000000E+000
2.776907682418823E-001;0.000000000000000E+000
2.789499163627625E-001;0.000000000000000E+000
2.806860208511353E-001;0.000000000000000E+000
2.812965214252472E-001;0.000000000000000E+000
1.999616920948029E-001;-8.312730523477132E-001
2.017725110054016E-001;-2.913444441767314E-001
2.050907909870148E-001;-1.934076335107089E-001
2.080258876085281E-001;-1.570136461022713E-001
2.112210094928741E-001;-1.341640840483609E-001
2.142318636178970E-001;-1.157669903133773E-001
2.173582464456558E-001;-1.005366366074512E-001
2.203489691019058E-001;-8.728118799975992E-002
2.234955132007599E-001;-7.560965288156862E-002
2.265604138374329E-001;-6.531208606689831E-002
2.296380251646042E-001;-5.589720278380883E-002
2.327633500099182E-001;-4.745697935402773E-002
2.358325272798538E-001;-3.966328146188929E-002
2.388794124126434E-001;-3.243826595701815E-002
2.419920265674591E-001;-2.580608769036691E-002
2.450505495071411E-001;-1.977673699903487E-002
2.481621056795120E-001;-1.412081283378719E-002
2.512672841548920E-001;-8.714511113903263E-003
2.542633116245270E-001;-3.585205348292778E-003
2.573757767677307E-001;1.058606469698967E-003
2.603321671485901E-001;6.094019493272082E-003
2.635453343391418E-001;9.857317551633910E-003
2.665742337703705E-001;1.387162030414067E-002
2.697143852710724E-001;1.767261308049893E-002
2.728079259395599E-001;2.123767382662067E-002
2.758240699768066E-001;2.456990295634054E-002
2.789419889450073E-001;2.805094339882136E-002
2.819984257221222E-001;3.127204389460581E-002
2.850050628185272E-001;3.447076783702452E-002
2.882173061370850E-001;3.760479020806074E-002
2.912259995937347E-001;4.045716185030057E-002
2.943544983863831E-001;4.333035990210893E-002
2.974035441875458E-001;4.608196134198617E-002
3.005150556564331E-001;4.886999972965711E-002
3.035078942775726E-001;5.161383601344727E-002
3.065028786659241E-001;5.430839206662189E-002
3.096992373466492E-001;5.698241585811564E-002
3.128446638584137E-001;5.958715131043646E-002
3.159021735191345E-001;6.234999540596797E-002
3.190688192844391E-001;6.486876614550785E-002
3.220192790031433E-001;6.752298157718351E-002
3.252060711383820E-001;7.003173892724285E-002
3.282084465026855E-001;7.271570687281781E-002
3.312892317771912E-001;7.538973204092692E-002
3.344071805477142E-001;7.811380200146027E-002
3.374052643775940E-001;8.052658810957691E-002
3.405306339263916E-001;8.341681292070957E-002
3.435997664928436E-001;8.617003975200141E-002
3.465947210788727E-001;8.891968631613456E-002
3.498599827289581E-001;9.176030006976203E-002
3.528570532798767E-001;9.483805804009715E-002
3.559505641460419E-001;9.796048151049175E-002
3.590261042118073E-001;1.008895349993025E-001
3.620327413082123E-001;1.040841466662177E-001
3.651580512523651E-001;1.072249099059230E-001
3.681964576244354E-001;1.105916099374351E-001
3.713556826114655E-001;1.139276932830033E-001
3.744132220745087E-001;1.173592137999340E-001
3.774961233139038E-001;1.210376199141425E-001
3.805758953094482E-001;1.246847246074916E-001
3.836386799812317E-001;1.286609477567190E-001
3.867587149143219E-001;1.326031545886975E-001
3.897419869899750E-001;1.365693841568532E-001
3.929214179515839E-001;1.406174515596836E-001
3.960053920745850E-001;1.453454501489255E-001
3.990098834037781E-001;1.496759292482359E-001
4.021818339824677E-001;1.544550951424615E-001
4.052086174488068E-001;1.589345293082625E-001
4.082925915718079E-001;1.637850810517247E-001
4.113521575927734E-001;1.689423445662930E-001
4.143948256969452E-001;1.739130063819547E-001
4.175508618354797E-001;1.791759194913687E-001
4.206137061119080E-001;1.849094214448450E-001
4.236287474632263E-001;1.916393472501293E-001
4.267290830612183E-001;1.976964673585044E-001
4.298321306705475E-001;2.033423338420241E-001
4.329701960086823E-001;2.093676766835456E-001
4.360276758670807E-001;2.159877294324541E-001
4.390756189823151E-001;2.222913560634199E-001
4.422560930252075E-001;2.290951507999845E-001
4.452139437198639E-001;2.360889875944960E-001
4.484017491340637E-001;2.429968627413635E-001
4.514338672161102E-001;2.504693218837062E-001
4.544807076454163E-001;2.581034858814490E-001
4.575488269329071E-001;2.659727323164944E-001
4.606412947177887E-001;2.743284870381970E-001
4.637273848056793E-001;2.828143701310513E-001
4.667764306068420E-001;2.917787176557534E-001
4.698964357376099E-001;3.012407205219878E-001
4.729550182819366E-001;3.112397386288395E-001
4.760284125804901E-001;3.214829664148828E-001
4.791611135005951E-001;3.329807410305277E-001
4.821677207946777E-001;3.451082906318597E-001
4.853492379188538E-001;3.586023837324062E-001
4.883039295673370E-001;3.755623650611204E-001
4.914466142654419E-001;3.932233148930063E-001
4.945570826530457E-001;4.112111940210126E-001
4.975658059120178E-001;4.319756523126594E-001
5.007123351097107E-001;4.552630808069971E-001
5.037634968757629E-001;4.812436162411760E-001
5.067923665046692E-001;5.098236862179806E-001
5.099855065345764E-001;5.415978846287022E-001
5.129566192626953E-001;5.819825507695173E-001
5.160892605781555E-001;6.197604752937433E-001
5.191785097122192E-001;6.613500640568715E-001
5.222084522247314E-001;7.052156270731436E-001
5.253553986549377E-001;7.550182943811640E-001
5.283736586570740E-001;8.037281700462069E-001
5.315201878547668E-001;8.511650686341499E-001
5.345628857612610E-001;8.980986986620287E-001
5.375901460647583E-001;9.525930303460333E-001
5.406877994537354E-001;9.985427120883976E-001
5.437812805175781E-001;1.043837771691264E+000
5.469676256179810E-001;1.091025337815725E+000
5.499507784843445E-001;1.140487710016913E+000
5.530378818511963E-001;1.184884807047224E+000
5.562056303024292E-001;1.228909321383444E+000
5.591029524803162E-001;1.272912054396624E+000
5.623676776885986E-001;1.322871350186450E+000
5.653032064437866E-001;1.365742941191238E+000
5.684561729431152E-001;1.408924541640829E+000
5.715134739875793E-001;1.452976857306638E+000
5.745747089385986E-001;1.504144149417559E+000
5.776576399803162E-001;1.548774679908888E+000
5.808041095733643E-001;1.594445438683017E+000
5.838224291801453E-001;1.645144990496284E+000
5.869660973548889E-001;1.697822666025310E+000
5.899569392204285E-001;1.748976114347470E+000
5.930660963058472E-001;1.803465084650345E+000
5.961357951164246E-001;1.869066927810840E+000
5.992039442062378E-001;1.930821710291838E+000
6.023557186126709E-001;2.002802061218844E+000
6.053501367568970E-001;2.083731897535995E+000
6.084932684898376E-001;2.168097097720398E+000
6.115438938140869E-001;2.273896977196806E+000
6.146823167800903E-001;2.390608623121906E+000
6.177637577056885E-001;2.521649146332082E+000
6.208187937736511E-001;2.676073160036786E+000
6.238233447074890E-001;2.858533657632758E+000
6.269582509994507E-001;3.067021849977154E+000
6.300579309463501E-001;3.306825773264940E+000
6.331925988197327E-001;3.587313097217553E+000
6.361352205276489E-001;3.900708282615952E+000
6.393156647682190E-001;4.256484188697357E+000
6.423380374908447E-001;4.666022016366497E+000
6.454691886901855E-001;5.120671163177690E+000
6.485080718994141E-001;5.636826965107332E+000
6.515409350395203E-001;6.205747588072668E+000
6.547329425811768E-001;6.840136605760705E+000
6.577289700508118E-001;7.538760895931276E+000
6.608945727348328E-001;8.307824777270014E+000
6.639549732208252E-001;9.152536269374878E+000
6.669639945030212E-001;1.008052598248520E+001
6.701326370239258E-001;1.107063778514405E+001
6.731148362159729E-001;1.216024550333211E+001
6.761874556541443E-001;1.332010294973068E+001
6.792753338813782E-001;1.458141340399033E+001
6.823997497558594E-001;1.600972865742688E+001
6.854878067970276E-001;1.740662979995288E+001
6.884933710098267E-001;1.892039920632436E+001
6.916447281837463E-001;2.047419006511510E+001
6.946035623550415E-001;2.212068817515177E+001
6.977487802505493E-001;2.391723227073169E+001
6.995544433593750E-001;2.490942992678114E+001
6.999522447586060E-001;2.510391319344899E+001
