Apr. 21, 2024   17:03:32
Linear Sweep Voltammetry
File: 2 cd-900-lsv-80ug-n2.bin
Data Source:  Experiment
Instrument Model:  CHI760E
Header: 
Note: 

Init E (V) = -0.9
Final E (V) = 0.2
Scan Rate (V/s) = 0.01
Sample Interval (V) = 0.001
Quiet Time (sec) = 2
Sensitivity (A/V) = 0.001
2nd E (V) = 0.234
Sens 2 (A/V) = 1e-4

Results:

Channel 1:
Ep = -0.550V
ip = 1.996e-7A
Ah = 2.642e-7C

Ep = 0.199V
ip = 4.132e-5A
Ah = 4.727e-3C

Ep = -0.441V
ip = 1.310e-7A
Ah = 6.543e-7C

Current 2:

Ep = -0.441V
ip = 1.310e-7A
Ah = 6.543e-7C

Potential/V, i1/A, i2/A

-0.900, -1.725e-3, 2.453e-5
-0.899, -1.574e-3, 2.421e-5
-0.898, -1.439e-3, 2.395e-5
-0.897, -1.315e-3, 2.374e-5
-0.896, -1.202e-3, 2.353e-5
-0.895, -1.100e-3, 2.335e-5
-0.894, -1.006e-3, 2.316e-5
-0.893, -9.197e-4, 2.303e-5
-0.892, -8.418e-4, 2.288e-5
-0.891, -7.695e-4, 2.272e-5
-0.890, -7.036e-4, 2.258e-5
-0.889, -6.429e-4, 2.245e-5
-0.888, -5.873e-4, 2.232e-5
-0.887, -5.363e-4, 2.219e-5
-0.886, -4.892e-4, 2.208e-5
-0.885, -4.458e-4, 2.198e-5
-0.884, -4.061e-4, 2.185e-5
-0.883, -3.691e-4, 2.176e-5
-0.882, -3.354e-4, 2.165e-5
-0.881, -3.040e-4, 2.156e-5
-0.880, -2.754e-4, 2.147e-5
-0.879, -2.489e-4, 2.140e-5
-0.878, -2.242e-4, 2.132e-5
-0.877, -2.015e-4, 2.125e-5
-0.876, -1.803e-4, 2.115e-5
-0.875, -1.608e-4, 2.108e-5
-0.874, -1.426e-4, 2.099e-5
-0.873, -1.258e-4, 2.091e-5
-0.872, -1.104e-4, 2.085e-5
-0.871, -9.593e-5, 2.076e-5
-0.870, -8.237e-5, 2.068e-5
-0.869, -6.983e-5, 2.061e-5
-0.868, -5.832e-5, 2.054e-5
-0.867, -4.750e-5, 2.047e-5
-0.866, -3.739e-5, 2.042e-5
-0.865, -2.807e-5, 2.036e-5
-0.864, -1.917e-5, 2.028e-5
-0.863, -1.104e-5, 2.021e-5
-0.862, -3.482e-6, 2.013e-5
-0.861, 3.835e-6, 2.011e-5
-0.860, 1.046e-5, 2.007e-5
-0.859, 1.665e-5, 2.001e-5
-0.858, 2.264e-5, 1.994e-5
-0.857, 2.825e-5, 1.985e-5
-0.856, 3.332e-5, 1.981e-5
-0.855, 3.808e-5, 1.979e-5
-0.854, 4.246e-5, 1.975e-5
-0.853, 4.667e-5, 1.969e-5
-0.852, 5.065e-5, 1.965e-5
-0.851, 5.451e-5, 1.959e-5
-0.850, 5.800e-5, 1.955e-5
-0.849, 6.132e-5, 1.949e-5
-0.848, 6.452e-5, 1.945e-5
-0.847, 6.753e-5, 1.941e-5
-0.846, 7.026e-5, 1.937e-5
-0.845, 7.294e-5, 1.932e-5
-0.844, 7.544e-5, 1.927e-5
-0.843, 7.779e-5, 1.923e-5
-0.842, 8.013e-5, 1.918e-5
-0.841, 8.220e-5, 1.915e-5
-0.840, 8.414e-5, 1.911e-5
-0.839, 8.611e-5, 1.906e-5
-0.838, 8.801e-5, 1.902e-5
-0.837, 8.971e-5, 1.898e-5
-0.836, 9.141e-5, 1.895e-5
-0.835, 9.299e-5, 1.892e-5
-0.834, 9.445e-5, 1.890e-5
-0.833, 9.584e-5, 1.886e-5
-0.832, 9.723e-5, 1.882e-5
-0.831, 9.852e-5, 1.878e-5
-0.830, 9.969e-5, 1.875e-5
-0.829, 1.009e-4, 1.872e-5
-0.828, 1.021e-4, 1.867e-5
-0.827, 1.032e-4, 1.862e-5
-0.826, 1.043e-4, 1.858e-5
-0.825, 1.054e-4, 1.857e-5
-0.824, 1.062e-4, 1.854e-5
-0.823, 1.071e-4, 1.851e-5
-0.822, 1.080e-4, 1.849e-5
-0.821, 1.088e-4, 1.845e-5
-0.820, 1.096e-4, 1.841e-5
-0.819, 1.109e-4, 1.839e-5
-0.818, 1.115e-4, 1.837e-5
-0.817, 1.121e-4, 1.834e-5
-0.816, 1.127e-4, 1.831e-5
-0.815, 1.134e-4, 1.828e-5
-0.814, 1.140e-4, 1.825e-5
-0.813, 1.146e-4, 1.822e-5
-0.812, 1.152e-4, 1.819e-5
-0.811, 1.156e-4, 1.816e-5
-0.810, 1.162e-4, 1.813e-5
-0.809, 1.168e-4, 1.810e-5
-0.808, 1.174e-4, 1.807e-5
-0.807, 1.180e-4, 1.804e-5
-0.806, 1.185e-4, 1.801e-5
-0.805, 1.189e-4, 1.799e-5
-0.804, 1.193e-4, 1.798e-5
-0.803, 1.197e-4, 1.795e-5
-0.802, 1.202e-4, 1.792e-5
-0.801, 1.205e-4, 1.790e-5
-0.800, 1.210e-4, 1.788e-5
-0.799, 1.215e-4, 1.786e-5
-0.798, 1.218e-4, 1.783e-5
-0.797, 1.223e-4, 1.778e-5
-0.796, 1.227e-4, 1.776e-5
-0.795, 1.230e-4, 1.773e-5
-0.794, 1.234e-4, 1.771e-5
-0.793, 1.237e-4, 1.769e-5
-0.792, 1.240e-4, 1.768e-5
-0.791, 1.244e-4, 1.765e-5
-0.790, 1.247e-4, 1.764e-5
-0.789, 1.250e-4, 1.763e-5
-0.788, 1.254e-4, 1.761e-5
-0.787, 1.257e-4, 1.760e-5
-0.786, 1.259e-4, 1.759e-5
-0.785, 1.261e-4, 1.758e-5
-0.784, 1.264e-4, 1.756e-5
-0.783, 1.267e-4, 1.754e-5
-0.782, 1.270e-4, 1.752e-5
-0.781, 1.273e-4, 1.751e-5
-0.780, 1.276e-4, 1.750e-5
-0.779, 1.277e-4, 1.747e-5
-0.778, 1.280e-4, 1.744e-5
-0.777, 1.283e-4, 1.743e-5
-0.776, 1.284e-4, 1.742e-5
-0.775, 1.286e-4, 1.741e-5
-0.774, 1.289e-4, 1.739e-5
-0.773, 1.291e-4, 1.735e-5
-0.772, 1.293e-4, 1.733e-5
-0.771, 1.296e-4, 1.733e-5
-0.770, 1.298e-4, 1.732e-5
-0.769, 1.300e-4, 1.731e-5
-0.768, 1.303e-4, 1.728e-5
-0.767, 1.305e-4, 1.726e-5
-0.766, 1.306e-4, 1.725e-5
-0.765, 1.308e-4, 1.723e-5
-0.764, 1.311e-4, 1.721e-5
-0.763, 1.312e-4, 1.720e-5
-0.762, 1.315e-4, 1.718e-5
-0.761, 1.316e-4, 1.716e-5
-0.760, 1.317e-4, 1.715e-5
-0.759, 1.319e-4, 1.714e-5
-0.758, 1.321e-4, 1.713e-5
-0.757, 1.322e-4, 1.713e-5
-0.756, 1.324e-4, 1.712e-5
-0.755, 1.327e-4, 1.710e-5
-0.754, 1.329e-4, 1.705e-5
-0.753, 1.330e-4, 1.704e-5
-0.752, 1.332e-4, 1.703e-5
-0.751, 1.334e-4, 1.702e-5
-0.750, 1.335e-4, 1.700e-5
-0.749, 1.337e-4, 1.699e-5
-0.748, 1.339e-4, 1.699e-5
-0.747, 1.340e-4, 1.698e-5
-0.746, 1.342e-4, 1.698e-5
-0.745, 1.344e-4, 1.696e-5
-0.744, 1.345e-4, 1.695e-5
-0.743, 1.347e-4, 1.692e-5
-0.742, 1.348e-4, 1.691e-5
-0.741, 1.348e-4, 1.691e-5
-0.740, 1.349e-4, 1.690e-5
-0.739, 1.351e-4, 1.688e-5
-0.738, 1.352e-4, 1.687e-5
-0.737, 1.353e-4, 1.687e-5
-0.736, 1.355e-4, 1.686e-5
-0.735, 1.356e-4, 1.686e-5
-0.734, 1.356e-4, 1.685e-5
-0.733, 1.358e-4, 1.684e-5
-0.732, 1.359e-4, 1.683e-5
-0.731, 1.360e-4, 1.681e-5
-0.730, 1.362e-4, 1.681e-5
-0.729, 1.364e-4, 1.679e-5
-0.728, 1.364e-4, 1.677e-5
-0.727, 1.366e-4, 1.675e-5
-0.726, 1.368e-4, 1.673e-5
-0.725, 1.368e-4, 1.674e-5
-0.724, 1.369e-4, 1.674e-5
-0.723, 1.371e-4, 1.672e-5
-0.722, 1.372e-4, 1.670e-5
-0.721, 1.373e-4, 1.669e-5
-0.720, 1.374e-4, 1.667e-5
-0.719, 1.376e-4, 1.666e-5
-0.718, 1.377e-4, 1.665e-5
-0.717, 1.379e-4, 1.664e-5
-0.716, 1.382e-4, 1.664e-5
-0.715, 1.381e-4, 1.664e-5
-0.714, 1.382e-4, 1.663e-5
-0.713, 1.383e-4, 1.664e-5
-0.712, 1.383e-4, 1.663e-5
-0.711, 1.384e-4, 1.661e-5
-0.710, 1.385e-4, 1.660e-5
-0.709, 1.385e-4, 1.660e-5
-0.708, 1.387e-4, 1.659e-5
-0.707, 1.387e-4, 1.658e-5
-0.706, 1.389e-4, 1.658e-5
-0.705, 1.389e-4, 1.658e-5
-0.704, 1.390e-4, 1.656e-5
-0.703, 1.391e-4, 1.655e-5
-0.702, 1.390e-4, 1.655e-5
-0.701, 1.391e-4, 1.655e-5
-0.700, 1.392e-4, 1.654e-5
-0.699, 1.393e-4, 1.654e-5
-0.698, 1.394e-4, 1.653e-5
-0.697, 1.396e-4, 1.652e-5
-0.696, 1.396e-4, 1.650e-5
-0.695, 1.397e-4, 1.650e-5
-0.694, 1.399e-4, 1.647e-5
-0.693, 1.399e-4, 1.645e-5
-0.692, 1.400e-4, 1.643e-5
-0.691, 1.402e-4, 1.641e-5
-0.690, 1.402e-4, 1.642e-5
-0.689, 1.403e-4, 1.643e-5
-0.688, 1.403e-4, 1.645e-5
-0.687, 1.404e-4, 1.645e-5
-0.686, 1.404e-4, 1.644e-5
-0.685, 1.405e-4, 1.642e-5
-0.684, 1.407e-4, 1.641e-5
-0.683, 1.406e-4, 1.642e-5
-0.682, 1.407e-4, 1.642e-5
-0.681, 1.409e-4, 1.641e-5
-0.680, 1.409e-4, 1.640e-5
-0.679, 1.410e-4, 1.638e-5
-0.678, 1.412e-4, 1.638e-5
-0.677, 1.412e-4, 1.638e-5
-0.676, 1.412e-4, 1.637e-5
-0.675, 1.413e-4, 1.636e-5
-0.674, 1.413e-4, 1.635e-5
-0.673, 1.414e-4, 1.635e-5
-0.672, 1.416e-4, 1.632e-5
-0.671, 1.416e-4, 1.631e-5
-0.670, 1.416e-4, 1.631e-5
-0.669, 1.417e-4, 1.632e-5
-0.668, 1.418e-4, 1.632e-5
-0.667, 1.419e-4, 1.632e-5
-0.666, 1.420e-4, 1.631e-5
-0.665, 1.420e-4, 1.630e-5
-0.664, 1.420e-4, 1.630e-5
-0.663, 1.421e-4, 1.629e-5
-0.662, 1.422e-4, 1.629e-5
-0.661, 1.422e-4, 1.629e-5
-0.660, 1.423e-4, 1.628e-5
-0.659, 1.424e-4, 1.626e-5
-0.658, 1.425e-4, 1.627e-5
-0.657, 1.425e-4, 1.627e-5
-0.656, 1.425e-4, 1.625e-5
-0.655, 1.427e-4, 1.624e-5
-0.654, 1.427e-4, 1.624e-5
-0.653, 1.428e-4, 1.624e-5
-0.652, 1.430e-4, 1.623e-5
-0.651, 1.429e-4, 1.623e-5
-0.650, 1.430e-4, 1.624e-5
-0.649, 1.431e-4, 1.623e-5
-0.648, 1.431e-4, 1.623e-5
-0.647, 1.431e-4, 1.622e-5
-0.646, 1.433e-4, 1.621e-5
-0.645, 1.432e-4, 1.622e-5
-0.644, 1.433e-4, 1.622e-5
-0.643, 1.434e-4, 1.622e-5
-0.642, 1.435e-4, 1.619e-5
-0.641, 1.435e-4, 1.615e-5
-0.640, 1.437e-4, 1.615e-5
-0.639, 1.437e-4, 1.613e-5
-0.638, 1.437e-4, 1.612e-5
-0.637, 1.438e-4, 1.611e-5
-0.636, 1.438e-4, 1.610e-5
-0.635, 1.438e-4, 1.611e-5
-0.634, 1.439e-4, 1.610e-5
-0.633, 1.440e-4, 1.610e-5
-0.632, 1.440e-4, 1.612e-5
-0.631, 1.440e-4, 1.611e-5
-0.630, 1.441e-4, 1.611e-5
-0.629, 1.441e-4, 1.611e-5
-0.628, 1.442e-4, 1.611e-5
-0.627, 1.443e-4, 1.612e-5
-0.626, 1.444e-4, 1.611e-5
-0.625, 1.443e-4, 1.612e-5
-0.624, 1.443e-4, 1.612e-5
-0.623, 1.444e-4, 1.611e-5
-0.622, 1.444e-4, 1.609e-5
-0.621, 1.446e-4, 1.610e-5
-0.620, 1.446e-4, 1.610e-5
-0.619, 1.446e-4, 1.610e-5
-0.618, 1.446e-4, 1.609e-5
-0.617, 1.447e-4, 1.608e-5
-0.616, 1.447e-4, 1.609e-5
-0.615, 1.448e-4, 1.609e-5
-0.614, 1.452e-4, 1.610e-5
-0.613, 1.450e-4, 1.610e-5
-0.612, 1.450e-4, 1.612e-5
-0.611, 1.451e-4, 1.611e-5
-0.610, 1.452e-4, 1.610e-5
-0.609, 1.452e-4, 1.608e-5
-0.608, 1.453e-4, 1.608e-5
-0.607, 1.452e-4, 1.608e-5
-0.606, 1.451e-4, 1.609e-5
-0.605, 1.452e-4, 1.609e-5
-0.604, 1.452e-4, 1.608e-5
-0.603, 1.453e-4, 1.607e-5
-0.602, 1.453e-4, 1.606e-5
-0.601, 1.454e-4, 1.604e-5
-0.600, 1.454e-4, 1.605e-5
-0.599, 1.453e-4, 1.606e-5
-0.598, 1.454e-4, 1.606e-5
-0.597, 1.454e-4, 1.606e-5
-0.596, 1.454e-4, 1.605e-5
-0.595, 1.455e-4, 1.605e-5
-0.594, 1.455e-4, 1.605e-5
-0.593, 1.455e-4, 1.606e-5
-0.592, 1.455e-4, 1.607e-5
-0.591, 1.455e-4, 1.605e-5
-0.590, 1.455e-4, 1.604e-5
-0.589, 1.457e-4, 1.603e-5
-0.588, 1.457e-4, 1.604e-5
-0.587, 1.457e-4, 1.605e-5
-0.586, 1.457e-4, 1.605e-5
-0.585, 1.459e-4, 1.605e-5
-0.584, 1.458e-4, 1.602e-5
-0.583, 1.460e-4, 1.604e-5
-0.582, 1.460e-4, 1.603e-5
-0.581, 1.460e-4, 1.602e-5
-0.580, 1.459e-4, 1.603e-5
-0.579, 1.460e-4, 1.602e-5
-0.578, 1.460e-4, 1.603e-5
-0.577, 1.461e-4, 1.603e-5
-0.576, 1.461e-4, 1.603e-5
-0.575, 1.462e-4, 1.603e-5
-0.574, 1.461e-4, 1.603e-5
-0.573, 1.461e-4, 1.604e-5
-0.572, 1.462e-4, 1.604e-5
-0.571, 1.461e-4, 1.603e-5
-0.570, 1.462e-4, 1.602e-5
-0.569, 1.463e-4, 1.602e-5
-0.568, 1.462e-4, 1.602e-5
-0.567, 1.463e-4, 1.602e-5
-0.566, 1.463e-4, 1.601e-5
-0.565, 1.463e-4, 1.601e-5
-0.564, 1.464e-4, 1.601e-5
-0.563, 1.465e-4, 1.602e-5
-0.562, 1.465e-4, 1.601e-5
-0.561, 1.465e-4, 1.599e-5
-0.560, 1.465e-4, 1.600e-5
-0.559, 1.465e-4, 1.601e-5
-0.558, 1.466e-4, 1.600e-5
-0.557, 1.467e-4, 1.601e-5
-0.556, 1.467e-4, 1.600e-5
-0.555, 1.467e-4, 1.599e-5
-0.554, 1.468e-4, 1.600e-5
-0.553, 1.469e-4, 1.600e-5
-0.552, 1.468e-4, 1.600e-5
-0.551, 1.468e-4, 1.599e-5
-0.550, 1.469e-4, 1.599e-5
-0.549, 1.467e-4, 1.601e-5
-0.548, 1.467e-4, 1.602e-5
-0.547, 1.468e-4, 1.602e-5
-0.546, 1.468e-4, 1.602e-5
-0.545, 1.468e-4, 1.603e-5
-0.544, 1.469e-4, 1.601e-5
-0.543, 1.469e-4, 1.602e-5
-0.542, 1.468e-4, 1.602e-5
-0.541, 1.469e-4, 1.600e-5
-0.540, 1.470e-4, 1.600e-5
-0.539, 1.469e-4, 1.600e-5
-0.538, 1.470e-4, 1.599e-5
-0.537, 1.470e-4, 1.600e-5
-0.536, 1.470e-4, 1.600e-5
-0.535, 1.470e-4, 1.600e-5
-0.534, 1.470e-4, 1.600e-5
-0.533, 1.469e-4, 1.601e-5
-0.532, 1.469e-4, 1.603e-5
-0.531, 1.469e-4, 1.605e-5
-0.530, 1.469e-4, 1.605e-5
-0.529, 1.469e-4, 1.603e-5
-0.528, 1.470e-4, 1.602e-5
-0.527, 1.469e-4, 1.601e-5
-0.526, 1.470e-4, 1.600e-5
-0.525, 1.471e-4, 1.600e-5
-0.524, 1.471e-4, 1.602e-5
-0.523, 1.470e-4, 1.602e-5
-0.522, 1.471e-4, 1.601e-5
-0.521, 1.471e-4, 1.601e-5
-0.520, 1.470e-4, 1.602e-5
-0.519, 1.471e-4, 1.602e-5
-0.518, 1.472e-4, 1.602e-5
-0.517, 1.471e-4, 1.602e-5
-0.516, 1.471e-4, 1.603e-5
-0.515, 1.472e-4, 1.604e-5
-0.514, 1.472e-4, 1.602e-5
-0.513, 1.473e-4, 1.602e-5
-0.512, 1.475e-4, 1.602e-5
-0.511, 1.475e-4, 1.603e-5
-0.510, 1.473e-4, 1.604e-5
-0.509, 1.473e-4, 1.604e-5
-0.508, 1.473e-4, 1.604e-5
-0.507, 1.473e-4, 1.604e-5
-0.506, 1.473e-4, 1.605e-5
-0.505, 1.473e-4, 1.605e-5
-0.504, 1.472e-4, 1.605e-5
-0.503, 1.472e-4, 1.605e-5
-0.502, 1.472e-4, 1.603e-5
-0.501, 1.472e-4, 1.602e-5
-0.500, 1.472e-4, 1.602e-5
-0.499, 1.473e-4, 1.602e-5
-0.498, 1.472e-4, 1.603e-5
-0.497, 1.471e-4, 1.605e-5
-0.496, 1.472e-4, 1.605e-5
-0.495, 1.471e-4, 1.606e-5
-0.494, 1.471e-4, 1.606e-5
-0.493, 1.472e-4, 1.605e-5
-0.492, 1.472e-4, 1.605e-5
-0.491, 1.472e-4, 1.605e-5
-0.490, 1.472e-4, 1.605e-5
-0.489, 1.472e-4, 1.606e-5
-0.488, 1.471e-4, 1.605e-5
-0.487, 1.472e-4, 1.607e-5
-0.486, 1.472e-4, 1.607e-5
-0.485, 1.472e-4, 1.608e-5
-0.484, 1.472e-4, 1.608e-5
-0.483, 1.472e-4, 1.606e-5
-0.482, 1.472e-4, 1.606e-5
-0.481, 1.472e-4, 1.606e-5
-0.480, 1.473e-4, 1.606e-5
-0.479, 1.473e-4, 1.607e-5
-0.478, 1.472e-4, 1.607e-5
-0.477, 1.471e-4, 1.607e-5
-0.476, 1.472e-4, 1.606e-5
-0.475, 1.471e-4, 1.607e-5
-0.474, 1.472e-4, 1.608e-5
-0.473, 1.472e-4, 1.608e-5
-0.472, 1.471e-4, 1.608e-5
-0.471, 1.471e-4, 1.609e-5
-0.470, 1.472e-4, 1.609e-5
-0.469, 1.471e-4, 1.609e-5
-0.468, 1.472e-4, 1.609e-5
-0.467, 1.472e-4, 1.609e-5
-0.466, 1.471e-4, 1.610e-5
-0.465, 1.471e-4, 1.611e-5
-0.464, 1.471e-4, 1.611e-5
-0.463, 1.471e-4, 1.609e-5
-0.462, 1.471e-4, 1.608e-5
-0.461, 1.471e-4, 1.610e-5
-0.460, 1.471e-4, 1.609e-5
-0.459, 1.470e-4, 1.609e-5
-0.458, 1.469e-4, 1.609e-5
-0.457, 1.471e-4, 1.609e-5
-0.456, 1.469e-4, 1.610e-5
-0.455, 1.470e-4, 1.611e-5
-0.454, 1.470e-4, 1.611e-5
-0.453, 1.469e-4, 1.610e-5
-0.452, 1.469e-4, 1.610e-5
-0.451, 1.469e-4, 1.610e-5
-0.450, 1.469e-4, 1.609e-5
-0.449, 1.469e-4, 1.609e-5
-0.448, 1.470e-4, 1.610e-5
-0.447, 1.469e-4, 1.612e-5
-0.446, 1.469e-4, 1.611e-5
-0.445, 1.469e-4, 1.611e-5
-0.444, 1.469e-4, 1.611e-5
-0.443, 1.468e-4, 1.612e-5
-0.442, 1.467e-4, 1.612e-5
-0.441, 1.468e-4, 1.613e-5
-0.440, 1.466e-4, 1.612e-5
-0.439, 1.467e-4, 1.612e-5
-0.438, 1.468e-4, 1.613e-5
-0.437, 1.467e-4, 1.611e-5
-0.436, 1.467e-4, 1.612e-5
-0.435, 1.467e-4, 1.613e-5
-0.434, 1.466e-4, 1.612e-5
-0.433, 1.466e-4, 1.611e-5
-0.432, 1.467e-4, 1.611e-5
-0.431, 1.466e-4, 1.610e-5
-0.430, 1.465e-4, 1.611e-5
-0.429, 1.465e-4, 1.613e-5
-0.428, 1.465e-4, 1.613e-5
-0.427, 1.464e-4, 1.612e-5
-0.426, 1.465e-4, 1.613e-5
-0.425, 1.464e-4, 1.613e-5
-0.424, 1.464e-4, 1.612e-5
-0.423, 1.464e-4, 1.612e-5
-0.422, 1.464e-4, 1.612e-5
-0.421, 1.464e-4, 1.611e-5
-0.420, 1.463e-4, 1.611e-5
-0.419, 1.463e-4, 1.612e-5
-0.418, 1.463e-4, 1.611e-5
-0.417, 1.462e-4, 1.610e-5
-0.416, 1.462e-4, 1.612e-5
-0.415, 1.462e-4, 1.613e-5
-0.414, 1.461e-4, 1.612e-5
-0.413, 1.461e-4, 1.612e-5
-0.412, 1.461e-4, 1.612e-5
-0.411, 1.460e-4, 1.612e-5
-0.410, 1.462e-4, 1.611e-5
-0.409, 1.465e-4, 1.610e-5
-0.408, 1.463e-4, 1.609e-5
-0.407, 1.463e-4, 1.608e-5
-0.406, 1.461e-4, 1.609e-5
-0.405, 1.460e-4, 1.612e-5
-0.404, 1.459e-4, 1.611e-5
-0.403, 1.459e-4, 1.611e-5
-0.402, 1.458e-4, 1.612e-5
-0.401, 1.457e-4, 1.611e-5
-0.400, 1.456e-4, 1.611e-5
-0.399, 1.456e-4, 1.610e-5
-0.398, 1.455e-4, 1.607e-5
-0.397, 1.455e-4, 1.608e-5
-0.396, 1.454e-4, 1.610e-5
-0.395, 1.453e-4, 1.611e-5
-0.394, 1.453e-4, 1.610e-5
-0.393, 1.453e-4, 1.608e-5
-0.392, 1.452e-4, 1.608e-5
-0.391, 1.452e-4, 1.607e-5
-0.390, 1.452e-4, 1.609e-5
-0.389, 1.450e-4, 1.610e-5
-0.388, 1.448e-4, 1.609e-5
-0.387, 1.449e-4, 1.609e-5
-0.386, 1.449e-4, 1.607e-5
-0.385, 1.448e-4, 1.607e-5
-0.384, 1.448e-4, 1.608e-5
-0.383, 1.447e-4, 1.608e-5
-0.382, 1.447e-4, 1.607e-5
-0.381, 1.446e-4, 1.605e-5
-0.380, 1.446e-4, 1.603e-5
-0.379, 1.445e-4, 1.603e-5
-0.378, 1.445e-4, 1.601e-5
-0.377, 1.445e-4, 1.600e-5
-0.376, 1.443e-4, 1.600e-5
-0.375, 1.443e-4, 1.599e-5
-0.374, 1.443e-4, 1.599e-5
-0.373, 1.442e-4, 1.598e-5
-0.372, 1.441e-4, 1.597e-5
-0.371, 1.442e-4, 1.597e-5
-0.370, 1.440e-4, 1.598e-5
-0.369, 1.440e-4, 1.598e-5
-0.368, 1.439e-4, 1.598e-5
-0.367, 1.439e-4, 1.597e-5
-0.366, 1.437e-4, 1.597e-5
-0.365, 1.438e-4, 1.596e-5
-0.364, 1.438e-4, 1.594e-5
-0.363, 1.437e-4, 1.593e-5
-0.362, 1.436e-4, 1.593e-5
-0.361, 1.436e-4, 1.595e-5
-0.360, 1.435e-4, 1.594e-5
-0.359, 1.434e-4, 1.593e-5
-0.358, 1.435e-4, 1.592e-5
-0.357, 1.434e-4, 1.591e-5
-0.356, 1.433e-4, 1.591e-5
-0.355, 1.432e-4, 1.591e-5
-0.354, 1.431e-4, 1.591e-5
-0.353, 1.430e-4, 1.592e-5
-0.352, 1.429e-4, 1.592e-5
-0.351, 1.428e-4, 1.592e-5
-0.350, 1.426e-4, 1.591e-5
-0.349, 1.425e-4, 1.591e-5
-0.348, 1.425e-4, 1.590e-5
-0.347, 1.423e-4, 1.589e-5
-0.346, 1.423e-4, 1.588e-5
-0.345, 1.422e-4, 1.587e-5
-0.344, 1.421e-4, 1.587e-5
-0.343, 1.420e-4, 1.586e-5
-0.342, 1.420e-4, 1.588e-5
-0.341, 1.419e-4, 1.587e-5
-0.340, 1.418e-4, 1.586e-5
-0.339, 1.418e-4, 1.584e-5
-0.338, 1.417e-4, 1.585e-5
-0.337, 1.416e-4, 1.584e-5
-0.336, 1.414e-4, 1.583e-5
-0.335, 1.414e-4, 1.583e-5
-0.334, 1.414e-4, 1.580e-5
-0.333, 1.413e-4, 1.582e-5
-0.332, 1.411e-4, 1.582e-5
-0.331, 1.409e-4, 1.582e-5
-0.330, 1.408e-4, 1.582e-5
-0.329, 1.407e-4, 1.581e-5
-0.328, 1.406e-4, 1.582e-5
-0.327, 1.405e-4, 1.580e-5
-0.326, 1.404e-4, 1.580e-5
-0.325, 1.403e-4, 1.579e-5
-0.324, 1.401e-4, 1.579e-5
-0.323, 1.400e-4, 1.578e-5
-0.322, 1.399e-4, 1.579e-5
-0.321, 1.397e-4, 1.577e-5
-0.320, 1.398e-4, 1.576e-5
-0.319, 1.397e-4, 1.574e-5
-0.318, 1.395e-4, 1.574e-5
-0.317, 1.394e-4, 1.575e-5
-0.316, 1.392e-4, 1.576e-5
-0.315, 1.390e-4, 1.575e-5
-0.314, 1.390e-4, 1.575e-5
-0.313, 1.390e-4, 1.574e-5
-0.312, 1.388e-4, 1.574e-5
-0.311, 1.387e-4, 1.573e-5
-0.310, 1.386e-4, 1.572e-5
-0.309, 1.385e-4, 1.570e-5
-0.308, 1.384e-4, 1.570e-5
-0.307, 1.384e-4, 1.568e-5
-0.306, 1.383e-4, 1.567e-5
-0.305, 1.381e-4, 1.568e-5
-0.304, 1.380e-4, 1.567e-5
-0.303, 1.378e-4, 1.566e-5
-0.302, 1.376e-4, 1.566e-5
-0.301, 1.375e-4, 1.566e-5
-0.300, 1.374e-4, 1.566e-5
-0.299, 1.372e-4, 1.564e-5
-0.298, 1.371e-4, 1.563e-5
-0.297, 1.370e-4, 1.563e-5
-0.296, 1.368e-4, 1.562e-5
-0.295, 1.367e-4, 1.561e-5
-0.294, 1.367e-4, 1.559e-5
-0.293, 1.364e-4, 1.562e-5
-0.292, 1.362e-4, 1.561e-5
-0.291, 1.361e-4, 1.560e-5
-0.290, 1.360e-4, 1.559e-5
-0.289, 1.358e-4, 1.558e-5
-0.288, 1.358e-4, 1.557e-5
-0.287, 1.356e-4, 1.556e-5
-0.286, 1.354e-4, 1.556e-5
-0.285, 1.353e-4, 1.556e-5
-0.284, 1.351e-4, 1.555e-5
-0.283, 1.349e-4, 1.554e-5
-0.282, 1.347e-4, 1.554e-5
-0.281, 1.347e-4, 1.552e-5
-0.280, 1.345e-4, 1.551e-5
-0.279, 1.343e-4, 1.550e-5
-0.278, 1.341e-4, 1.550e-5
-0.277, 1.340e-4, 1.550e-5
-0.276, 1.339e-4, 1.548e-5
-0.275, 1.338e-4, 1.546e-5
-0.274, 1.337e-4, 1.547e-5
-0.273, 1.335e-4, 1.546e-5
-0.272, 1.333e-4, 1.545e-5
-0.271, 1.332e-4, 1.544e-5
-0.270, 1.331e-4, 1.542e-5
-0.269, 1.329e-4, 1.542e-5
-0.268, 1.328e-4, 1.542e-5
-0.267, 1.325e-4, 1.542e-5
-0.266, 1.324e-4, 1.540e-5
-0.265, 1.322e-4, 1.539e-5
-0.264, 1.320e-4, 1.538e-5
-0.263, 1.319e-4, 1.535e-5
-0.262, 1.318e-4, 1.535e-5
-0.261, 1.316e-4, 1.536e-5
-0.260, 1.314e-4, 1.535e-5
-0.259, 1.313e-4, 1.534e-5
-0.258, 1.312e-4, 1.533e-5
-0.257, 1.311e-4, 1.530e-5
-0.256, 1.310e-4, 1.529e-5
-0.255, 1.308e-4, 1.531e-5
-0.254, 1.305e-4, 1.530e-5
-0.253, 1.303e-4, 1.530e-5
-0.252, 1.302e-4, 1.529e-5
-0.251, 1.300e-4, 1.528e-5
-0.250, 1.298e-4, 1.525e-5
-0.249, 1.297e-4, 1.526e-5
-0.248, 1.294e-4, 1.523e-5
-0.247, 1.293e-4, 1.523e-5
-0.246, 1.293e-4, 1.522e-5
-0.245, 1.290e-4, 1.521e-5
-0.244, 1.289e-4, 1.521e-5
-0.243, 1.288e-4, 1.518e-5
-0.242, 1.286e-4, 1.516e-5
-0.241, 1.285e-4, 1.515e-5
-0.240, 1.283e-4, 1.514e-5
-0.239, 1.281e-4, 1.513e-5
-0.238, 1.279e-4, 1.512e-5
-0.237, 1.279e-4, 1.510e-5
-0.236, 1.277e-4, 1.510e-5
-0.235, 1.275e-4, 1.509e-5
-0.234, 1.274e-4, 1.507e-5
-0.233, 1.272e-4, 1.506e-5
-0.232, 1.271e-4, 1.504e-5
-0.231, 1.269e-4, 1.503e-5
-0.230, 1.268e-4, 1.502e-5
-0.229, 1.266e-4, 1.502e-5
-0.228, 1.264e-4, 1.502e-5
-0.227, 1.263e-4, 1.500e-5
-0.226, 1.261e-4, 1.500e-5
-0.225, 1.259e-4, 1.498e-5
-0.224, 1.258e-4, 1.496e-5
-0.223, 1.256e-4, 1.497e-5
-0.222, 1.254e-4, 1.494e-5
-0.221, 1.253e-4, 1.492e-5
-0.220, 1.251e-4, 1.492e-5
-0.219, 1.250e-4, 1.492e-5
-0.218, 1.249e-4, 1.490e-5
-0.217, 1.247e-4, 1.489e-5
-0.216, 1.244e-4, 1.489e-5
-0.215, 1.243e-4, 1.487e-5
-0.214, 1.241e-4, 1.485e-5
-0.213, 1.240e-4, 1.483e-5
-0.212, 1.238e-4, 1.481e-5
-0.211, 1.237e-4, 1.481e-5
-0.210, 1.235e-4, 1.481e-5
-0.209, 1.233e-4, 1.479e-5
-0.208, 1.232e-4, 1.477e-5
-0.207, 1.231e-4, 1.476e-5
-0.206, 1.229e-4, 1.474e-5
-0.205, 1.229e-4, 1.472e-5
-0.204, 1.229e-4, 1.471e-5
-0.203, 1.226e-4, 1.469e-5
-0.202, 1.224e-4, 1.466e-5
-0.201, 1.223e-4, 1.465e-5
-0.200, 1.220e-4, 1.463e-5
-0.199, 1.219e-4, 1.460e-5
-0.198, 1.218e-4, 1.458e-5
-0.197, 1.216e-4, 1.457e-5
-0.196, 1.214e-4, 1.455e-5
-0.195, 1.213e-4, 1.453e-5
-0.194, 1.211e-4, 1.451e-5
-0.193, 1.210e-4, 1.448e-5
-0.192, 1.210e-4, 1.447e-5
-0.191, 1.209e-4, 1.445e-5
-0.190, 1.207e-4, 1.442e-5
-0.189, 1.206e-4, 1.439e-5
-0.188, 1.205e-4, 1.439e-5
-0.187, 1.203e-4, 1.436e-5
-0.186, 1.203e-4, 1.433e-5
-0.185, 1.203e-4, 1.431e-5
-0.184, 1.201e-4, 1.429e-5
-0.183, 1.200e-4, 1.426e-5
-0.182, 1.200e-4, 1.424e-5
-0.181, 1.199e-4, 1.422e-5
-0.180, 1.199e-4, 1.421e-5
-0.179, 1.198e-4, 1.418e-5
-0.178, 1.197e-4, 1.415e-5
-0.177, 1.196e-4, 1.412e-5
-0.176, 1.195e-4, 1.410e-5
-0.175, 1.195e-4, 1.408e-5
-0.174, 1.194e-4, 1.405e-5
-0.173, 1.193e-4, 1.404e-5
-0.172, 1.193e-4, 1.401e-5
-0.171, 1.192e-4, 1.398e-5
-0.170, 1.192e-4, 1.395e-5
-0.169, 1.191e-4, 1.393e-5
-0.168, 1.191e-4, 1.391e-5
-0.167, 1.191e-4, 1.387e-5
-0.166, 1.192e-4, 1.385e-5
-0.165, 1.191e-4, 1.383e-5
-0.164, 1.191e-4, 1.381e-5
-0.163, 1.191e-4, 1.379e-5
-0.162, 1.191e-4, 1.376e-5
-0.161, 1.191e-4, 1.374e-5
-0.160, 1.192e-4, 1.371e-5
-0.159, 1.192e-4, 1.369e-5
-0.158, 1.192e-4, 1.367e-5
-0.157, 1.192e-4, 1.364e-5
-0.156, 1.193e-4, 1.363e-5
-0.155, 1.193e-4, 1.362e-5
-0.154, 1.195e-4, 1.360e-5
-0.153, 1.197e-4, 1.356e-5
-0.152, 1.196e-4, 1.355e-5
-0.151, 1.196e-4, 1.353e-5
-0.150, 1.197e-4, 1.351e-5
-0.149, 1.197e-4, 1.350e-5
-0.148, 1.198e-4, 1.349e-5
-0.147, 1.199e-4, 1.348e-5
-0.146, 1.200e-4, 1.345e-5
-0.145, 1.201e-4, 1.343e-5
-0.144, 1.203e-4, 1.341e-5
-0.143, 1.204e-4, 1.339e-5
-0.142, 1.205e-4, 1.338e-5
-0.141, 1.206e-4, 1.336e-5
-0.140, 1.208e-4, 1.334e-5
-0.139, 1.208e-4, 1.333e-5
-0.138, 1.210e-4, 1.332e-5
-0.137, 1.212e-4, 1.331e-5
-0.136, 1.213e-4, 1.329e-5
-0.135, 1.215e-4, 1.328e-5
-0.134, 1.217e-4, 1.327e-5
-0.133, 1.218e-4, 1.327e-5
-0.132, 1.220e-4, 1.326e-5
-0.131, 1.222e-4, 1.324e-5
-0.130, 1.225e-4, 1.324e-5
-0.129, 1.226e-4, 1.324e-5
-0.128, 1.229e-4, 1.323e-5
-0.127, 1.231e-4, 1.322e-5
-0.126, 1.232e-4, 1.320e-5
-0.125, 1.234e-4, 1.319e-5
-0.124, 1.236e-4, 1.319e-5
-0.123, 1.238e-4, 1.317e-5
-0.122, 1.241e-4, 1.316e-5
-0.121, 1.243e-4, 1.316e-5
-0.120, 1.245e-4, 1.315e-5
-0.119, 1.248e-4, 1.314e-5
-0.118, 1.251e-4, 1.314e-5
-0.117, 1.253e-4, 1.313e-5
-0.116, 1.255e-4, 1.312e-5
-0.115, 1.258e-4, 1.311e-5
-0.114, 1.260e-4, 1.310e-5
-0.113, 1.262e-4, 1.309e-5
-0.112, 1.265e-4, 1.309e-5
-0.111, 1.268e-4, 1.309e-5
-0.110, 1.270e-4, 1.309e-5
-0.109, 1.273e-4, 1.308e-5
-0.108, 1.277e-4, 1.307e-5
-0.107, 1.279e-4, 1.305e-5
-0.106, 1.282e-4, 1.305e-5
-0.105, 1.285e-4, 1.305e-5
-0.104, 1.288e-4, 1.305e-5
-0.103, 1.291e-4, 1.305e-5
-0.102, 1.296e-4, 1.304e-5
-0.101, 1.298e-4, 1.304e-5
-0.100, 1.300e-4, 1.304e-5
-0.099, 1.303e-4, 1.303e-5
-0.098, 1.305e-4, 1.303e-5
-0.097, 1.308e-4, 1.303e-5
-0.096, 1.311e-4, 1.302e-5
-0.095, 1.314e-4, 1.302e-5
-0.094, 1.316e-4, 1.302e-5
-0.093, 1.319e-4, 1.302e-5
-0.092, 1.322e-4, 1.302e-5
-0.091, 1.324e-4, 1.301e-5
-0.090, 1.328e-4, 1.300e-5
-0.089, 1.331e-4, 1.299e-5
-0.088, 1.332e-4, 1.299e-5
-0.087, 1.336e-4, 1.299e-5
-0.086, 1.339e-4, 1.299e-5
-0.085, 1.342e-4, 1.299e-5
-0.084, 1.345e-4, 1.298e-5
-0.083, 1.347e-4, 1.298e-5
-0.082, 1.350e-4, 1.298e-5
-0.081, 1.352e-4, 1.297e-5
-0.080, 1.355e-4, 1.297e-5
-0.079, 1.359e-4, 1.296e-5
-0.078, 1.361e-4, 1.297e-5
-0.077, 1.364e-4, 1.297e-5
-0.076, 1.367e-4, 1.296e-5
-0.075, 1.368e-4, 1.295e-5
-0.074, 1.371e-4, 1.294e-5
-0.073, 1.374e-4, 1.294e-5
-0.072, 1.375e-4, 1.294e-5
-0.071, 1.378e-4, 1.294e-5
-0.070, 1.381e-4, 1.293e-5
-0.069, 1.383e-4, 1.292e-5
-0.068, 1.386e-4, 1.292e-5
-0.067, 1.388e-4, 1.292e-5
-0.066, 1.390e-4, 1.292e-5
-0.065, 1.393e-4, 1.291e-5
-0.064, 1.395e-4, 1.292e-5
-0.063, 1.397e-4, 1.293e-5
-0.062, 1.399e-4, 1.294e-5
-0.061, 1.401e-4, 1.291e-5
-0.060, 1.404e-4, 1.290e-5
-0.059, 1.406e-4, 1.290e-5
-0.058, 1.408e-4, 1.289e-5
-0.057, 1.410e-4, 1.289e-5
-0.056, 1.412e-4, 1.289e-5
-0.055, 1.413e-4, 1.289e-5
-0.054, 1.417e-4, 1.289e-5
-0.053, 1.418e-4, 1.290e-5
-0.052, 1.419e-4, 1.289e-5
-0.051, 1.423e-4, 1.286e-5
-0.050, 1.424e-4, 1.286e-5
-0.049, 1.425e-4, 1.286e-5
-0.048, 1.427e-4, 1.288e-5
-0.047, 1.428e-4, 1.287e-5
-0.046, 1.430e-4, 1.286e-5
-0.045, 1.431e-4, 1.286e-5
-0.044, 1.433e-4, 1.286e-5
-0.043, 1.434e-4, 1.285e-5
-0.042, 1.436e-4, 1.286e-5
-0.041, 1.437e-4, 1.285e-5
-0.040, 1.439e-4, 1.285e-5
-0.039, 1.442e-4, 1.285e-5
-0.038, 1.443e-4, 1.285e-5
-0.037, 1.444e-4, 1.284e-5
-0.036, 1.445e-4, 1.284e-5
-0.035, 1.446e-4, 1.284e-5
-0.034, 1.448e-4, 1.283e-5
-0.033, 1.449e-4, 1.283e-5
-0.032, 1.450e-4, 1.282e-5
-0.031, 1.452e-4, 1.282e-5
-0.030, 1.452e-4, 1.281e-5
-0.029, 1.454e-4, 1.281e-5
-0.028, 1.456e-4, 1.281e-5
-0.027, 1.457e-4, 1.282e-5
-0.026, 1.459e-4, 1.282e-5
-0.025, 1.460e-4, 1.282e-5
-0.024, 1.460e-4, 1.281e-5
-0.023, 1.461e-4, 1.281e-5
-0.022, 1.464e-4, 1.280e-5
-0.021, 1.464e-4, 1.279e-5
-0.020, 1.465e-4, 1.279e-5
-0.019, 1.467e-4, 1.278e-5
-0.018, 1.468e-4, 1.278e-5
-0.017, 1.469e-4, 1.278e-5
-0.016, 1.470e-4, 1.278e-5
-0.015, 1.471e-4, 1.278e-5
-0.014, 1.473e-4, 1.277e-5
-0.013, 1.474e-4, 1.277e-5
-0.012, 1.475e-4, 1.277e-5
-0.011, 1.476e-4, 1.276e-5
-0.010, 1.478e-4, 1.276e-5
-0.009, 1.479e-4, 1.278e-5
-0.008, 1.480e-4, 1.278e-5
-0.007, 1.481e-4, 1.276e-5
-0.006, 1.483e-4, 1.275e-5
-0.005, 1.484e-4, 1.275e-5
-0.004, 1.484e-4, 1.274e-5
-0.003, 1.486e-4, 1.275e-5
-0.002, 1.486e-4, 1.274e-5
-0.001, 1.488e-4, 1.274e-5
-0.000, 1.494e-4, 1.273e-5
0.001, 1.494e-4, 1.273e-5
0.002, 1.494e-4, 1.274e-5
0.003, 1.495e-4, 1.273e-5
0.004, 1.496e-4, 1.273e-5
0.005, 1.496e-4, 1.273e-5
0.006, 1.498e-4, 1.271e-5
0.007, 1.499e-4, 1.272e-5
0.008, 1.498e-4, 1.273e-5
0.009, 1.501e-4, 1.272e-5
0.010, 1.501e-4, 1.272e-5
0.011, 1.503e-4, 1.271e-5
0.012, 1.504e-4, 1.271e-5
0.013, 1.506e-4, 1.271e-5
0.014, 1.507e-4, 1.272e-5
0.015, 1.507e-4, 1.272e-5
0.016, 1.509e-4, 1.272e-5
0.017, 1.511e-4, 1.271e-5
0.018, 1.511e-4, 1.271e-5
0.019, 1.513e-4, 1.270e-5
0.020, 1.514e-4, 1.270e-5
0.021, 1.515e-4, 1.268e-5
0.022, 1.517e-4, 1.267e-5
0.023, 1.518e-4, 1.267e-5
0.024, 1.520e-4, 1.267e-5
0.025, 1.521e-4, 1.265e-5
0.026, 1.523e-4, 1.264e-5
0.027, 1.523e-4, 1.263e-5
0.028, 1.525e-4, 1.262e-5
0.029, 1.526e-4, 1.262e-5
0.030, 1.527e-4, 1.262e-5
0.031, 1.529e-4, 1.262e-5
0.032, 1.530e-4, 1.261e-5
0.033, 1.532e-4, 1.261e-5
0.034, 1.533e-4, 1.261e-5
0.035, 1.535e-4, 1.262e-5
0.036, 1.536e-4, 1.262e-5
0.037, 1.537e-4, 1.261e-5
0.038, 1.539e-4, 1.262e-5
0.039, 1.540e-4, 1.261e-5
0.040, 1.541e-4, 1.263e-5
0.041, 1.543e-4, 1.263e-5
0.042, 1.545e-4, 1.262e-5
0.043, 1.547e-4, 1.263e-5
0.044, 1.549e-4, 1.262e-5
0.045, 1.551e-4, 1.262e-5
0.046, 1.553e-4, 1.261e-5
0.047, 1.555e-4, 1.260e-5
0.048, 1.556e-4, 1.260e-5
0.049, 1.558e-4, 1.259e-5
0.050, 1.558e-4, 1.258e-5
0.051, 1.561e-4, 1.259e-5
0.052, 1.563e-4, 1.259e-5
0.053, 1.563e-4, 1.259e-5
0.054, 1.565e-4, 1.259e-5
0.055, 1.568e-4, 1.261e-5
0.056, 1.568e-4, 1.260e-5
0.057, 1.571e-4, 1.259e-5
0.058, 1.574e-4, 1.257e-5
0.059, 1.575e-4, 1.258e-5
0.060, 1.577e-4, 1.258e-5
0.061, 1.578e-4, 1.257e-5
0.062, 1.580e-4, 1.257e-5
0.063, 1.581e-4, 1.257e-5
0.064, 1.584e-4, 1.256e-5
0.065, 1.585e-4, 1.256e-5
0.066, 1.587e-4, 1.256e-5
0.067, 1.588e-4, 1.256e-5
0.068, 1.591e-4, 1.256e-5
0.069, 1.593e-4, 1.255e-5
0.070, 1.595e-4, 1.254e-5
0.071, 1.597e-4, 1.254e-5
0.072, 1.599e-4, 1.254e-5
0.073, 1.601e-4, 1.254e-5
0.074, 1.602e-4, 1.254e-5
0.075, 1.604e-4, 1.254e-5
0.076, 1.606e-4, 1.254e-5
0.077, 1.609e-4, 1.253e-5
0.078, 1.611e-4, 1.252e-5
0.079, 1.612e-4, 1.252e-5
0.080, 1.614e-4, 1.252e-5
0.081, 1.617e-4, 1.252e-5
0.082, 1.618e-4, 1.252e-5
0.083, 1.621e-4, 1.252e-5
0.084, 1.624e-4, 1.252e-5
0.085, 1.625e-4, 1.252e-5
0.086, 1.628e-4, 1.251e-5
0.087, 1.630e-4, 1.251e-5
0.088, 1.632e-4, 1.250e-5
0.089, 1.634e-4, 1.251e-5
0.090, 1.637e-4, 1.250e-5
0.091, 1.639e-4, 1.249e-5
0.092, 1.641e-4, 1.249e-5
0.093, 1.643e-4, 1.249e-5
0.094, 1.645e-4, 1.249e-5
0.095, 1.647e-4, 1.248e-5
0.096, 1.650e-4, 1.248e-5
0.097, 1.652e-4, 1.248e-5
0.098, 1.655e-4, 1.247e-5
0.099, 1.658e-4, 1.247e-5
0.100, 1.661e-4, 1.248e-5
0.101, 1.662e-4, 1.247e-5
0.102, 1.667e-4, 1.247e-5
0.103, 1.670e-4, 1.247e-5
0.104, 1.671e-4, 1.246e-5
0.105, 1.674e-4, 1.246e-5
0.106, 1.676e-4, 1.246e-5
0.107, 1.679e-4, 1.245e-5
0.108, 1.681e-4, 1.246e-5
0.109, 1.684e-4, 1.245e-5
0.110, 1.687e-4, 1.245e-5
0.111, 1.689e-4, 1.244e-5
0.112, 1.692e-4, 1.244e-5
0.113, 1.694e-4, 1.244e-5
0.114, 1.697e-4, 1.243e-5
0.115, 1.700e-4, 1.243e-5
0.116, 1.703e-4, 1.243e-5
0.117, 1.706e-4, 1.243e-5
0.118, 1.709e-4, 1.243e-5
0.119, 1.711e-4, 1.243e-5
0.120, 1.715e-4, 1.243e-5
0.121, 1.718e-4, 1.243e-5
0.122, 1.721e-4, 1.243e-5
0.123, 1.725e-4, 1.244e-5
0.124, 1.728e-4, 1.243e-5
0.125, 1.731e-4, 1.242e-5
0.126, 1.734e-4, 1.243e-5
0.127, 1.737e-4, 1.242e-5
0.128, 1.740e-4, 1.242e-5
0.129, 1.744e-4, 1.242e-5
0.130, 1.746e-4, 1.241e-5
0.131, 1.751e-4, 1.238e-5
0.132, 1.754e-4, 1.237e-5
0.133, 1.757e-4, 1.236e-5
0.134, 1.761e-4, 1.236e-5
0.135, 1.764e-4, 1.236e-5
0.136, 1.767e-4, 1.235e-5
0.137, 1.771e-4, 1.235e-5
0.138, 1.775e-4, 1.237e-5
0.139, 1.778e-4, 1.237e-5
0.140, 1.783e-4, 1.237e-5
0.141, 1.787e-4, 1.238e-5
0.142, 1.791e-4, 1.239e-5
0.143, 1.795e-4, 1.239e-5
0.144, 1.799e-4, 1.239e-5
0.145, 1.803e-4, 1.239e-5
0.146, 1.807e-4, 1.238e-5
0.147, 1.813e-4, 1.237e-5
0.148, 1.817e-4, 1.237e-5
0.149, 1.820e-4, 1.236e-5
0.150, 1.825e-4, 1.235e-5
0.151, 1.829e-4, 1.235e-5
0.152, 1.833e-4, 1.236e-5
0.153, 1.837e-4, 1.235e-5
0.154, 1.844e-4, 1.236e-5
0.155, 1.847e-4, 1.235e-5
0.156, 1.852e-4, 1.235e-5
0.157, 1.857e-4, 1.235e-5
0.158, 1.862e-4, 1.234e-5
0.159, 1.867e-4, 1.234e-5
0.160, 1.872e-4, 1.235e-5
0.161, 1.878e-4, 1.234e-5
0.162, 1.882e-4, 1.233e-5
0.163, 1.887e-4, 1.232e-5
0.164, 1.893e-4, 1.232e-5
0.165, 1.897e-4, 1.231e-5
0.166, 1.903e-4, 1.231e-5
0.167, 1.909e-4, 1.230e-5
0.168, 1.914e-4, 1.231e-5
0.169, 1.920e-4, 1.230e-5
0.170, 1.926e-4, 1.230e-5
0.171, 1.932e-4, 1.230e-5
0.172, 1.938e-4, 1.230e-5
0.173, 1.945e-4, 1.230e-5
0.174, 1.950e-4, 1.230e-5
0.175, 1.957e-4, 1.229e-5
0.176, 1.963e-4, 1.229e-5
0.177, 1.968e-4, 1.230e-5
0.178, 1.975e-4, 1.228e-5
0.179, 1.981e-4, 1.228e-5
0.180, 1.989e-4, 1.229e-5
0.181, 1.995e-4, 1.229e-5
0.182, 2.002e-4, 1.228e-5
0.183, 2.009e-4, 1.228e-5
0.184, 2.016e-4, 1.227e-5
0.185, 2.025e-4, 1.225e-5
0.186, 2.033e-4, 1.225e-5
0.187, 2.039e-4, 1.226e-5
0.188, 2.048e-4, 1.227e-5
0.189, 2.055e-4, 1.226e-5
0.190, 2.064e-4, 1.226e-5
0.191, 2.071e-4, 1.225e-5
0.192, 2.081e-4, 1.225e-5
0.193, 2.089e-4, 1.225e-5
0.194, 2.097e-4, 1.225e-5
0.195, 2.106e-4, 1.225e-5
0.196, 2.116e-4, 1.225e-5
0.197, 2.124e-4, 1.224e-5
0.198, 2.134e-4, 1.224e-5
0.199, 2.144e-4, 1.224e-5
