Apr. 21, 2024   16:43:04
Linear Sweep Voltammetry
File: 2 cd-900-lsv-80ug-ir.bin
Data Source:  Experiment
Instrument Model:  CHI760E
Header: 
Note: 

Init E (V) = -0.9
Final E (V) = 0.2
Scan Rate (V/s) = 0.01
Sample Interval (V) = 0.001
Quiet Time (sec) = 2
Sensitivity (A/V) = 0.001
2nd E (V) = 0.234
Sens 2 (A/V) = 1e-4
Comp R (ohm) = 36.8

Results:

Channel 1:
Ep = 0.199V
ip = 4.950e-5A
Ah = 5.596e-3C

Ep = -0.419V
ip = 7.519e-6A
Ah = 8.849e-5C

Current 2:

Ep = -0.419V
ip = 7.519e-6A
Ah = 8.849e-5C

Ep = 0.001V
ip = 1.695e-8A
Ah = 2.988e-9C

Potential/V, i1/A, i2/A

-0.900, -1.923e-3, 7.931e-5
-0.899, -1.753e-3, 7.902e-5
-0.898, -1.642e-3, 7.901e-5
-0.897, -1.555e-3, 7.901e-5
-0.896, -1.484e-3, 7.872e-5
-0.895, -1.429e-3, 7.871e-5
-0.894, -1.378e-3, 7.864e-5
-0.893, -1.337e-3, 7.832e-5
-0.892, -1.308e-3, 7.828e-5
-0.891, -1.277e-3, 7.814e-5
-0.890, -1.254e-3, 7.796e-5
-0.889, -1.231e-3, 7.779e-5
-0.888, -1.214e-3, 7.777e-5
-0.887, -1.198e-3, 7.762e-5
-0.886, -1.183e-3, 7.750e-5
-0.885, -1.170e-3, 7.739e-5
-0.884, -1.160e-3, 7.726e-5
-0.883, -1.150e-3, 7.713e-5
-0.882, -1.142e-3, 7.701e-5
-0.881, -1.133e-3, 7.687e-5
-0.880, -1.127e-3, 7.678e-5
-0.879, -1.120e-3, 7.670e-5
-0.878, -1.114e-3, 7.655e-5
-0.877, -1.105e-3, 7.646e-5
-0.876, -1.105e-3, 7.628e-5
-0.875, -1.101e-3, 7.624e-5
-0.874, -1.096e-3, 7.619e-5
-0.873, -1.091e-3, 7.601e-5
-0.872, -1.088e-3, 7.594e-5
-0.871, -1.084e-3, 7.581e-5
-0.870, -1.081e-3, 7.566e-5
-0.869, -1.079e-3, 7.559e-5
-0.868, -1.077e-3, 7.552e-5
-0.867, -1.072e-3, 7.541e-5
-0.866, -1.070e-3, 7.535e-5
-0.865, -1.069e-3, 7.529e-5
-0.864, -1.065e-3, 7.515e-5
-0.863, -1.066e-3, 7.511e-5
-0.862, -1.063e-3, 7.500e-5
-0.861, -1.060e-3, 7.489e-5
-0.860, -1.060e-3, 7.479e-5
-0.859, -1.054e-3, 7.462e-5
-0.858, -1.057e-3, 7.462e-5
-0.857, -1.053e-3, 7.445e-5
-0.856, -1.052e-3, 7.445e-5
-0.855, -1.051e-3, 7.426e-5
-0.854, -1.049e-3, 7.419e-5
-0.853, -1.048e-3, 7.417e-5
-0.852, -1.046e-3, 7.407e-5
-0.851, -1.047e-3, 7.405e-5
-0.850, -1.044e-3, 7.387e-5
-0.849, -1.044e-3, 7.386e-5
-0.848, -1.038e-3, 7.373e-5
-0.847, -1.042e-3, 7.373e-5
-0.846, -1.042e-3, 7.374e-5
-0.845, -1.039e-3, 7.353e-5
-0.844, -1.039e-3, 7.363e-5
-0.843, -1.038e-3, 7.351e-5
-0.842, -1.035e-3, 7.341e-5
-0.841, -1.037e-3, 7.346e-5
-0.840, -1.036e-3, 7.331e-5
-0.839, -1.036e-3, 7.322e-5
-0.838, -1.034e-3, 7.318e-5
-0.837, -1.033e-3, 7.307e-5
-0.836, -1.032e-3, 7.297e-5
-0.835, -1.029e-3, 7.291e-5
-0.834, -1.032e-3, 7.304e-5
-0.833, -1.031e-3, 7.297e-5
-0.832, -1.030e-3, 7.286e-5
-0.831, -1.030e-3, 7.286e-5
-0.830, -1.032e-3, 7.276e-5
-0.829, -1.028e-3, 7.259e-5
-0.828, -1.029e-3, 7.262e-5
-0.827, -1.029e-3, 7.253e-5
-0.826, -1.023e-3, 7.253e-5
-0.825, -1.027e-3, 7.241e-5
-0.824, -1.027e-3, 7.240e-5
-0.823, -1.025e-3, 7.233e-5
-0.822, -1.026e-3, 7.231e-5
-0.821, -1.024e-3, 7.212e-5
-0.820, -1.024e-3, 7.213e-5
-0.819, -1.021e-3, 7.196e-5
-0.818, -1.021e-3, 7.191e-5
-0.817, -1.020e-3, 7.187e-5
-0.816, -1.020e-3, 7.184e-5
-0.815, -1.019e-3, 7.180e-5
-0.814, -1.018e-3, 7.170e-5
-0.813, -1.020e-3, 7.165e-5
-0.812, -1.016e-3, 7.158e-5
-0.811, -1.017e-3, 7.153e-5
-0.810, -1.017e-3, 7.149e-5
-0.809, -1.018e-3, 7.157e-5
-0.808, -1.018e-3, 7.153e-5
-0.807, -1.017e-3, 7.155e-5
-0.806, -1.017e-3, 7.144e-5
-0.805, -1.015e-3, 7.132e-5
-0.804, -1.017e-3, 7.142e-5
-0.803, -1.015e-3, 7.138e-5
-0.802, -1.016e-3, 7.134e-5
-0.801, -1.019e-3, 7.134e-5
-0.800, -1.014e-3, 7.124e-5
-0.799, -1.016e-3, 7.118e-5
-0.798, -1.016e-3, 7.118e-5
-0.797, -1.014e-3, 7.123e-5
-0.796, -1.015e-3, 7.108e-5
-0.795, -1.015e-3, 7.102e-5
-0.794, -1.014e-3, 7.107e-5
-0.793, -1.013e-3, 7.101e-5
-0.792, -1.012e-3, 7.101e-5
-0.791, -1.013e-3, 7.090e-5
-0.790, -1.015e-3, 7.094e-5
-0.789, -1.013e-3, 7.073e-5
-0.788, -1.011e-3, 7.079e-5
-0.787, -1.010e-3, 7.073e-5
-0.786, -1.011e-3, 7.071e-5
-0.785, -1.011e-3, 7.069e-5
-0.784, -1.009e-3, 7.063e-5
-0.783, -1.009e-3, 7.060e-5
-0.782, -1.009e-3, 7.048e-5
-0.781, -1.008e-3, 7.049e-5
-0.780, -1.008e-3, 7.049e-5
-0.779, -1.008e-3, 7.049e-5
-0.778, -1.008e-3, 7.048e-5
-0.777, -1.007e-3, 7.044e-5
-0.776, -1.008e-3, 7.043e-5
-0.775, -1.006e-3, 7.044e-5
-0.774, -1.007e-3, 7.029e-5
-0.773, -1.008e-3, 7.031e-5
-0.772, -1.006e-3, 7.026e-5
-0.771, -1.005e-3, 7.015e-5
-0.770, -1.005e-3, 7.023e-5
-0.769, -1.004e-3, 7.015e-5
-0.768, -1.003e-3, 7.009e-5
-0.767, -1.004e-3, 7.006e-5
-0.766, -1.004e-3, 7.012e-5
-0.765, -1.003e-3, 7.009e-5
-0.764, -1.003e-3, 7.002e-5
-0.763, -1.004e-3, 7.001e-5
-0.762, -1.002e-3, 7.009e-5
-0.761, -9.981e-4, 6.997e-5
-0.760, -1.005e-3, 7.000e-5
-0.759, -1.002e-3, 7.006e-5
-0.758, -1.002e-3, 7.002e-5
-0.757, -1.002e-3, 7.002e-5
-0.756, -1.002e-3, 6.997e-5
-0.755, -1.002e-3, 7.000e-5
-0.754, -1.002e-3, 7.001e-5
-0.753, -1.002e-3, 6.995e-5
-0.752, -1.002e-3, 6.997e-5
-0.751, -1.003e-3, 6.997e-5
-0.750, -1.001e-3, 6.996e-5
-0.749, -1.000e-3, 6.991e-5
-0.748, -1.002e-3, 6.996e-5
-0.747, -9.992e-4, 6.987e-5
-0.746, -9.956e-4, 6.981e-5
-0.745, -1.004e-3, 6.985e-5
-0.744, -9.989e-4, 6.991e-5
-0.743, -9.988e-4, 6.979e-5
-0.742, -9.990e-4, 6.990e-5
-0.741, -9.989e-4, 6.989e-5
-0.740, -9.993e-4, 6.987e-5
-0.739, -9.992e-4, 6.987e-5
-0.738, -9.982e-4, 6.979e-5
-0.737, -9.969e-4, 6.983e-5
-0.736, -9.978e-4, 6.981e-5
-0.735, -9.969e-4, 6.979e-5
-0.734, -9.970e-4, 6.976e-5
-0.733, -9.968e-4, 6.974e-5
-0.732, -9.952e-4, 6.968e-5
-0.731, -9.957e-4, 6.966e-5
-0.730, -9.947e-4, 6.974e-5
-0.729, -9.950e-4, 6.966e-5
-0.728, -9.956e-4, 6.974e-5
-0.727, -9.934e-4, 6.964e-5
-0.726, -9.955e-4, 6.963e-5
-0.725, -9.932e-4, 6.967e-5
-0.724, -9.928e-4, 6.957e-5
-0.723, -9.943e-4, 6.968e-5
-0.722, -9.926e-4, 6.967e-5
-0.721, -9.936e-4, 6.955e-5
-0.720, -9.908e-4, 6.956e-5
-0.719, -9.923e-4, 6.963e-5
-0.718, -9.897e-4, 6.965e-5
-0.717, -9.910e-4, 6.962e-5
-0.716, -9.917e-4, 6.962e-5
-0.715, -9.897e-4, 6.964e-5
-0.714, -9.926e-4, 6.964e-5
-0.713, -9.904e-4, 6.968e-5
-0.712, -9.906e-4, 6.961e-5
-0.711, -9.905e-4, 6.970e-5
-0.710, -9.898e-4, 6.962e-5
-0.709, -9.899e-4, 6.963e-5
-0.708, -9.900e-4, 6.974e-5
-0.707, -9.903e-4, 6.974e-5
-0.706, -9.898e-4, 6.970e-5
-0.705, -9.883e-4, 6.960e-5
-0.704, -9.888e-4, 6.968e-5
-0.703, -9.881e-4, 6.968e-5
-0.702, -9.867e-4, 6.962e-5
-0.701, -9.887e-4, 6.966e-5
-0.700, -9.873e-4, 6.972e-5
-0.699, -9.880e-4, 6.971e-5
-0.698, -9.870e-4, 6.972e-5
-0.697, -9.861e-4, 6.970e-5
-0.696, -9.866e-4, 6.973e-5
-0.695, -9.861e-4, 6.971e-5
-0.694, -9.853e-4, 6.971e-5
-0.693, -9.851e-4, 6.965e-5
-0.692, -9.858e-4, 6.980e-5
-0.691, -9.842e-4, 6.970e-5
-0.690, -9.848e-4, 6.970e-5
-0.689, -9.838e-4, 6.969e-5
-0.688, -9.833e-4, 6.974e-5
-0.687, -9.813e-4, 6.966e-5
-0.686, -9.832e-4, 6.974e-5
-0.685, -9.820e-4, 6.980e-5
-0.684, -9.829e-4, 6.973e-5
-0.683, -9.836e-4, 6.988e-5
-0.682, -9.827e-4, 6.987e-5
-0.681, -9.823e-4, 6.984e-5
-0.680, -9.801e-4, 6.979e-5
-0.679, -9.849e-4, 6.998e-5
-0.678, -9.794e-4, 6.987e-5
-0.677, -9.814e-4, 6.986e-5
-0.676, -9.805e-4, 6.990e-5
-0.675, -9.796e-4, 6.988e-5
-0.674, -9.796e-4, 6.987e-5
-0.673, -9.797e-4, 6.984e-5
-0.672, -9.784e-4, 6.993e-5
-0.671, -9.789e-4, 6.989e-5
-0.670, -9.794e-4, 6.997e-5
-0.669, -9.781e-4, 6.993e-5
-0.668, -9.775e-4, 6.998e-5
-0.667, -9.792e-4, 6.992e-5
-0.666, -9.748e-4, 6.992e-5
-0.665, -9.753e-4, 6.980e-5
-0.664, -9.747e-4, 7.002e-5
-0.663, -9.750e-4, 6.999e-5
-0.662, -9.757e-4, 7.000e-5
-0.661, -9.753e-4, 6.999e-5
-0.660, -9.746e-4, 7.002e-5
-0.659, -9.748e-4, 7.004e-5
-0.658, -9.739e-4, 7.001e-5
-0.657, -9.737e-4, 7.006e-5
-0.656, -9.735e-4, 7.008e-5
-0.655, -9.745e-4, 7.025e-5
-0.654, -9.735e-4, 7.024e-5
-0.653, -9.727e-4, 7.026e-5
-0.652, -9.750e-4, 7.023e-5
-0.651, -9.755e-4, 7.040e-5
-0.650, -9.724e-4, 7.035e-5
-0.649, -9.745e-4, 7.036e-5
-0.648, -9.718e-4, 7.032e-5
-0.647, -9.723e-4, 7.041e-5
-0.646, -9.710e-4, 7.039e-5
-0.645, -9.717e-4, 7.041e-5
-0.644, -9.704e-4, 7.038e-5
-0.643, -9.707e-4, 7.045e-5
-0.642, -9.703e-4, 7.044e-5
-0.641, -9.707e-4, 7.059e-5
-0.640, -9.703e-4, 7.044e-5
-0.639, -9.704e-4, 7.059e-5
-0.638, -9.691e-4, 7.051e-5
-0.637, -9.693e-4, 7.058e-5
-0.636, -9.683e-4, 7.055e-5
-0.635, -9.660e-4, 7.059e-5
-0.634, -9.678e-4, 7.059e-5
-0.633, -9.661e-4, 7.059e-5
-0.632, -9.679e-4, 7.066e-5
-0.631, -9.472e-4, 7.058e-5
-0.630, -9.480e-4, 7.084e-5
-0.629, -9.558e-4, 7.066e-5
-0.628, -9.501e-4, 7.066e-5
-0.627, -9.571e-4, 7.057e-5
-0.626, -9.491e-4, 7.079e-5
-0.625, -9.547e-4, 7.073e-5
-0.624, -9.495e-4, 7.082e-5
-0.623, -9.520e-4, 7.083e-5
-0.622, -9.495e-4, 7.092e-5
-0.621, -9.526e-4, 7.096e-5
-0.620, -9.551e-4, 7.090e-5
-0.619, -9.589e-4, 7.110e-5
-0.618, -9.611e-4, 7.080e-5
-0.617, -9.645e-4, 7.112e-5
-0.616, -9.618e-4, 7.112e-5
-0.615, -9.646e-4, 7.098e-5
-0.614, -9.587e-4, 7.097e-5
-0.613, -9.601e-4, 7.112e-5
-0.612, -9.567e-4, 7.109e-5
-0.611, -9.571e-4, 7.107e-5
-0.610, -9.572e-4, 7.117e-5
-0.609, -9.558e-4, 7.119e-5
-0.608, -9.483e-4, 7.130e-5
-0.607, -9.538e-4, 7.130e-5
-0.606, -9.580e-4, 7.126e-5
-0.605, -9.808e-4, 7.149e-5
-0.604, -9.956e-4, 7.138e-5
-0.603, -9.736e-4, 7.132e-5
-0.602, -9.662e-4, 7.152e-5
-0.601, -9.597e-4, 7.142e-5
-0.600, -9.615e-4, 7.154e-5
-0.599, -9.570e-4, 7.156e-5
-0.598, -9.563e-4, 7.161e-5
-0.597, -9.565e-4, 7.160e-5
-0.596, -9.542e-4, 7.166e-5
-0.595, -9.533e-4, 7.162e-5
-0.594, -9.524e-4, 7.162e-5
-0.593, -9.517e-4, 7.166e-5
-0.592, -9.510e-4, 7.182e-5
-0.591, -9.497e-4, 7.179e-5
-0.590, -9.515e-4, 7.194e-5
-0.589, -9.493e-4, 7.195e-5
-0.588, -9.504e-4, 7.202e-5
-0.587, -9.523e-4, 7.210e-5
-0.586, -9.485e-4, 7.209e-5
-0.585, -9.510e-4, 7.218e-5
-0.584, -9.494e-4, 7.225e-5
-0.583, -9.484e-4, 7.238e-5
-0.582, -9.489e-4, 7.228e-5
-0.581, -9.506e-4, 7.235e-5
-0.580, -9.480e-4, 7.242e-5
-0.579, -9.476e-4, 7.241e-5
-0.578, -9.486e-4, 7.254e-5
-0.577, -9.452e-4, 7.254e-5
-0.576, -9.484e-4, 7.257e-5
-0.575, -9.453e-4, 7.253e-5
-0.574, -9.465e-4, 7.272e-5
-0.573, -9.444e-4, 7.271e-5
-0.572, -9.473e-4, 7.277e-5
-0.571, -9.445e-4, 7.293e-5
-0.570, -9.424e-4, 7.279e-5
-0.569, -9.458e-4, 7.298e-5
-0.568, -9.443e-4, 7.296e-5
-0.567, -9.427e-4, 7.297e-5
-0.566, -9.412e-4, 7.309e-5
-0.565, -9.438e-4, 7.315e-5
-0.564, -9.436e-4, 7.325e-5
-0.563, -9.427e-4, 7.326e-5
-0.562, -9.431e-4, 7.341e-5
-0.561, -9.424e-4, 7.334e-5
-0.560, -9.401e-4, 7.341e-5
-0.559, -9.416e-4, 7.349e-5
-0.558, -9.418e-4, 7.364e-5
-0.557, -9.382e-4, 7.363e-5
-0.556, -9.409e-4, 7.361e-5
-0.555, -9.411e-4, 7.376e-5
-0.554, -9.369e-4, 7.380e-5
-0.553, -9.410e-4, 7.388e-5
-0.552, -9.389e-4, 7.387e-5
-0.551, -9.391e-4, 7.396e-5
-0.550, -9.392e-4, 7.410e-5
-0.549, -9.375e-4, 7.413e-5
-0.548, -9.390e-4, 7.416e-5
-0.547, -9.380e-4, 7.423e-5
-0.546, -9.378e-4, 7.435e-5
-0.545, -9.380e-4, 7.434e-5
-0.544, -9.377e-4, 7.443e-5
-0.543, -9.360e-4, 7.449e-5
-0.542, -9.373e-4, 7.452e-5
-0.541, -9.358e-4, 7.471e-5
-0.540, -9.367e-4, 7.465e-5
-0.539, -9.345e-4, 7.473e-5
-0.538, -9.364e-4, 7.478e-5
-0.537, -9.348e-4, 7.477e-5
-0.536, -9.348e-4, 7.494e-5
-0.535, -9.345e-4, 7.502e-5
-0.534, -9.332e-4, 7.503e-5
-0.533, -9.327e-4, 7.512e-5
-0.532, -9.337e-4, 7.516e-5
-0.531, -9.329e-4, 7.520e-5
-0.530, -9.333e-4, 7.524e-5
-0.529, -9.305e-4, 7.529e-5
-0.528, -9.319e-4, 7.537e-5
-0.527, -9.299e-4, 7.536e-5
-0.526, -9.311e-4, 7.545e-5
-0.525, -9.301e-4, 7.561e-5
-0.524, -9.287e-4, 7.557e-5
-0.523, -9.299e-4, 7.566e-5
-0.522, -9.283e-4, 7.580e-5
-0.521, -9.279e-4, 7.574e-5
-0.520, -9.281e-4, 7.585e-5
-0.519, -9.286e-4, 7.590e-5
-0.518, -9.262e-4, 7.595e-5
-0.517, -9.290e-4, 7.614e-5
-0.516, -9.265e-4, 7.616e-5
-0.515, -9.284e-4, 7.621e-5
-0.514, -9.258e-4, 7.633e-5
-0.513, -9.273e-4, 7.638e-5
-0.512, -9.237e-4, 7.637e-5
-0.511, -9.261e-4, 7.642e-5
-0.510, -9.249e-4, 7.654e-5
-0.509, -9.249e-4, 7.666e-5
-0.508, -9.259e-4, 7.659e-5
-0.507, -9.236e-4, 7.668e-5
-0.506, -9.238e-4, 7.673e-5
-0.505, -9.227e-4, 7.683e-5
-0.504, -9.245e-4, 7.698e-5
-0.503, -9.196e-4, 7.685e-5
-0.502, -9.251e-4, 7.701e-5
-0.501, -9.199e-4, 7.706e-5
-0.500, -9.211e-4, 7.702e-5
-0.499, -9.201e-4, 7.718e-5
-0.498, -9.210e-4, 7.720e-5
-0.497, -9.196e-4, 7.726e-5
-0.496, -9.194e-4, 7.743e-5
-0.495, -9.195e-4, 7.734e-5
-0.494, -9.198e-4, 7.752e-5
-0.493, -9.187e-4, 7.758e-5
-0.492, -9.171e-4, 7.751e-5
-0.491, -9.186e-4, 7.764e-5
-0.490, -9.172e-4, 7.769e-5
-0.489, -9.162e-4, 7.770e-5
-0.488, -9.184e-4, 7.786e-5
-0.487, -9.155e-4, 7.786e-5
-0.486, -9.160e-4, 7.786e-5
-0.485, -9.156e-4, 7.796e-5
-0.484, -9.147e-4, 7.799e-5
-0.483, -9.151e-4, 7.814e-5
-0.482, -9.136e-4, 7.810e-5
-0.481, -9.148e-4, 7.816e-5
-0.480, -9.137e-4, 7.837e-5
-0.479, -9.139e-4, 7.825e-5
-0.478, -9.141e-4, 7.844e-5
-0.477, -9.138e-4, 7.838e-5
-0.476, -9.115e-4, 7.846e-5
-0.475, -9.125e-4, 7.854e-5
-0.474, -9.105e-4, 7.851e-5
-0.473, -9.111e-4, 7.867e-5
-0.472, -9.133e-4, 7.881e-5
-0.471, -9.116e-4, 7.881e-5
-0.470, -9.130e-4, 7.874e-5
-0.469, -9.118e-4, 7.900e-5
-0.468, -9.107e-4, 7.886e-5
-0.467, -9.107e-4, 7.888e-5
-0.466, -9.109e-4, 7.899e-5
-0.465, -9.091e-4, 7.902e-5
-0.464, -9.089e-4, 7.900e-5
-0.463, -9.095e-4, 7.919e-5
-0.462, -9.078e-4, 7.902e-5
-0.461, -9.073e-4, 7.918e-5
-0.460, -9.099e-4, 7.934e-5
-0.459, -9.079e-4, 7.933e-5
-0.458, -9.071e-4, 7.926e-5
-0.457, -9.091e-4, 7.945e-5
-0.456, -9.072e-4, 7.937e-5
-0.455, -9.073e-4, 7.938e-5
-0.454, -9.066e-4, 7.950e-5
-0.453, -9.058e-4, 7.940e-5
-0.452, -9.051e-4, 7.947e-5
-0.451, -9.040e-4, 7.943e-5
-0.450, -9.048e-4, 7.949e-5
-0.449, -9.051e-4, 7.960e-5
-0.448, -9.034e-4, 7.958e-5
-0.447, -9.041e-4, 7.960e-5
-0.446, -9.044e-4, 7.967e-5
-0.445, -9.037e-4, 7.962e-5
-0.444, -9.036e-4, 7.965e-5
-0.443, -9.032e-4, 7.976e-5
-0.442, -9.014e-4, 7.967e-5
-0.441, -9.043e-4, 7.979e-5
-0.440, -8.999e-4, 7.989e-5
-0.439, -9.022e-4, 7.973e-5
-0.438, -9.022e-4, 7.974e-5
-0.437, -9.022e-4, 7.990e-5
-0.436, -9.010e-4, 7.984e-5
-0.435, -9.020e-4, 7.987e-5
-0.434, -9.012e-4, 7.992e-5
-0.433, -9.010e-4, 7.993e-5
-0.432, -9.013e-4, 7.988e-5
-0.431, -9.000e-4, 7.991e-5
-0.430, -9.005e-4, 7.994e-5
-0.429, -9.003e-4, 7.995e-5
-0.428, -9.000e-4, 8.000e-5
-0.427, -8.973e-4, 7.987e-5
-0.426, -8.996e-4, 7.995e-5
-0.425, -9.002e-4, 7.995e-5
-0.424, -8.997e-4, 7.995e-5
-0.423, -8.978e-4, 7.986e-5
-0.422, -9.007e-4, 8.001e-5
-0.421, -8.977e-4, 7.983e-5
-0.420, -8.991e-4, 7.992e-5
-0.419, -8.979e-4, 8.002e-5
-0.418, -8.997e-4, 7.986e-5
-0.417, -8.982e-4, 7.990e-5
-0.416, -8.971e-4, 7.987e-5
-0.415, -8.984e-4, 7.981e-5
-0.414, -8.970e-4, 7.980e-5
-0.413, -8.988e-4, 7.992e-5
-0.412, -8.975e-4, 7.991e-5
-0.411, -8.992e-4, 7.983e-5
-0.410, -8.949e-4, 7.974e-5
-0.409, -8.962e-4, 7.973e-5
-0.408, -8.958e-4, 7.971e-5
-0.407, -8.972e-4, 7.972e-5
-0.406, -8.986e-4, 7.973e-5
-0.405, -8.957e-4, 7.963e-5
-0.404, -8.985e-4, 7.964e-5
-0.403, -8.954e-4, 7.958e-5
-0.402, -8.982e-4, 7.946e-5
-0.401, -8.963e-4, 7.947e-5
-0.400, -8.973e-4, 7.943e-5
-0.399, -8.964e-4, 7.947e-5
-0.398, -8.946e-4, 7.936e-5
-0.397, -8.982e-4, 7.931e-5
-0.396, -8.941e-4, 7.928e-5
-0.395, -8.970e-4, 7.913e-5
-0.394, -8.953e-4, 7.913e-5
-0.393, -8.962e-4, 7.916e-5
-0.392, -8.966e-4, 7.913e-5
-0.391, -8.950e-4, 7.893e-5
-0.390, -8.939e-4, 7.885e-5
-0.389, -8.959e-4, 7.882e-5
-0.388, -8.953e-4, 7.879e-5
-0.387, -8.954e-4, 7.884e-5
-0.386, -8.959e-4, 7.870e-5
-0.385, -8.966e-4, 7.864e-5
-0.384, -8.956e-4, 7.871e-5
-0.383, -8.972e-4, 7.853e-5
-0.382, -8.960e-4, 7.838e-5
-0.381, -8.957e-4, 7.846e-5
-0.380, -8.966e-4, 7.838e-5
-0.379, -8.963e-4, 7.826e-5
-0.378, -8.961e-4, 7.808e-5
-0.377, -8.963e-4, 7.808e-5
-0.376, -8.961e-4, 7.787e-5
-0.375, -8.957e-4, 7.786e-5
-0.374, -8.968e-4, 7.785e-5
-0.373, -8.969e-4, 7.779e-5
-0.372, -8.975e-4, 7.759e-5
-0.371, -8.949e-4, 7.736e-5
-0.370, -8.967e-4, 7.735e-5
-0.369, -8.958e-4, 7.726e-5
-0.368, -8.976e-4, 7.725e-5
-0.367, -8.961e-4, 7.722e-5
-0.366, -9.003e-4, 7.711e-5
-0.365, -8.969e-4, 7.694e-5
-0.364, -8.984e-4, 7.681e-5
-0.363, -8.987e-4, 7.676e-5
-0.362, -8.977e-4, 7.654e-5
-0.361, -8.981e-4, 7.648e-5
-0.360, -8.981e-4, 7.646e-5
-0.359, -8.990e-4, 7.629e-5
-0.358, -8.960e-4, 7.609e-5
-0.357, -8.999e-4, 7.611e-5
-0.356, -8.987e-4, 7.592e-5
-0.355, -8.976e-4, 7.584e-5
-0.354, -8.977e-4, 7.556e-5
-0.353, -8.998e-4, 7.549e-5
-0.352, -8.974e-4, 7.531e-5
-0.351, -8.985e-4, 7.521e-5
-0.350, -8.994e-4, 7.494e-5
-0.349, -8.968e-4, 7.471e-5
-0.348, -9.007e-4, 7.435e-5
-0.347, -8.998e-4, 7.438e-5
-0.346, -9.002e-4, 7.432e-5
-0.345, -9.007e-4, 7.410e-5
-0.344, -8.999e-4, 7.401e-5
-0.343, -8.991e-4, 7.381e-5
-0.342, -9.022e-4, 7.368e-5
-0.341, -9.003e-4, 7.350e-5
-0.340, -9.011e-4, 7.342e-5
-0.339, -9.020e-4, 7.320e-5
-0.338, -9.000e-4, 7.313e-5
-0.337, -9.031e-4, 7.296e-5
-0.336, -9.017e-4, 7.277e-5
-0.335, -9.019e-4, 7.259e-5
-0.334, -9.029e-4, 7.252e-5
-0.333, -9.018e-4, 7.233e-5
-0.332, -9.027e-4, 7.215e-5
-0.331, -9.030e-4, 7.191e-5
-0.330, -9.037e-4, 7.180e-5
-0.329, -9.039e-4, 7.165e-5
-0.328, -9.035e-4, 7.145e-5
-0.327, -9.039e-4, 7.133e-5
-0.326, -9.034e-4, 7.109e-5
-0.325, -9.056e-4, 7.094e-5
-0.324, -9.043e-4, 7.082e-5
-0.323, -9.052e-4, 7.066e-5
-0.322, -9.065e-4, 7.053e-5
-0.321, -9.037e-4, 7.031e-5
-0.320, -9.073e-4, 7.010e-5
-0.319, -9.059e-4, 6.994e-5
-0.318, -9.072e-4, 6.966e-5
-0.317, -9.071e-4, 6.954e-5
-0.316, -9.066e-4, 6.942e-5
-0.315, -9.079e-4, 6.921e-5
-0.314, -9.068e-4, 6.901e-5
-0.313, -9.083e-4, 6.889e-5
-0.312, -9.086e-4, 6.872e-5
-0.311, -9.082e-4, 6.848e-5
-0.310, -9.099e-4, 6.825e-5
-0.309, -9.092e-4, 6.806e-5
-0.308, -9.098e-4, 6.795e-5
-0.307, -9.085e-4, 6.778e-5
-0.306, -9.090e-4, 6.748e-5
-0.305, -9.119e-4, 6.743e-5
-0.304, -9.081e-4, 6.709e-5
-0.303, -9.118e-4, 6.694e-5
-0.302, -9.116e-4, 6.669e-5
-0.301, -9.105e-4, 6.658e-5
-0.300, -9.132e-4, 6.648e-5
-0.299, -9.134e-4, 6.628e-5
-0.298, -9.127e-4, 6.598e-5
-0.297, -9.125e-4, 6.573e-5
-0.296, -9.128e-4, 6.560e-5
-0.295, -9.114e-4, 6.534e-5
-0.294, -9.132e-4, 6.511e-5
-0.293, -9.129e-4, 6.489e-5
-0.292, -9.124e-4, 6.473e-5
-0.291, -9.139e-4, 6.459e-5
-0.290, -9.126e-4, 6.442e-5
-0.289, -9.144e-4, 6.412e-5
-0.288, -9.142e-4, 6.399e-5
-0.287, -9.137e-4, 6.382e-5
-0.286, -9.149e-4, 6.354e-5
-0.285, -9.149e-4, 6.326e-5
-0.284, -9.140e-4, 6.312e-5
-0.283, -9.148e-4, 6.299e-5
-0.282, -9.145e-4, 6.276e-5
-0.281, -9.127e-4, 6.260e-5
-0.280, -9.161e-4, 6.231e-5
-0.279, -9.167e-4, 6.221e-5
-0.278, -9.147e-4, 6.196e-5
-0.277, -9.179e-4, 6.185e-5
-0.276, -9.163e-4, 6.159e-5
-0.275, -9.178e-4, 6.142e-5
-0.274, -9.182e-4, 6.128e-5
-0.273, -9.158e-4, 6.095e-5
-0.272, -9.167e-4, 6.077e-5
-0.271, -9.186e-4, 6.064e-5
-0.270, -9.173e-4, 6.038e-5
-0.269, -9.164e-4, 6.017e-5
-0.268, -9.197e-4, 5.996e-5
-0.267, -9.189e-4, 5.982e-5
-0.266, -9.164e-4, 5.956e-5
-0.265, -9.187e-4, 5.937e-5
-0.264, -9.158e-4, 5.910e-5
-0.263, -9.186e-4, 5.896e-5
-0.262, -9.180e-4, 5.886e-5
-0.261, -9.168e-4, 5.860e-5
-0.260, -9.196e-4, 5.842e-5
-0.259, -9.200e-4, 5.824e-5
-0.258, -9.191e-4, 5.812e-5
-0.257, -9.188e-4, 5.778e-5
-0.256, -9.213e-4, 5.767e-5
-0.255, -9.187e-4, 5.740e-5
-0.254, -9.200e-4, 5.726e-5
-0.253, -9.199e-4, 5.706e-5
-0.252, -9.205e-4, 5.670e-5
-0.251, -9.203e-4, 5.657e-5
-0.250, -9.196e-4, 5.641e-5
-0.249, -9.194e-4, 5.626e-5
-0.248, -9.197e-4, 5.602e-5
-0.247, -9.173e-4, 5.575e-5
-0.246, -9.218e-4, 5.560e-5
-0.245, -9.209e-4, 5.541e-5
-0.244, -9.199e-4, 5.508e-5
-0.243, -9.199e-4, 5.497e-5
-0.242, -9.213e-4, 5.478e-5
-0.241, -9.202e-4, 5.451e-5
-0.240, -9.204e-4, 5.433e-5
-0.239, -9.190e-4, 5.403e-5
-0.238, -9.199e-4, 5.388e-5
-0.237, -9.206e-4, 5.363e-5
-0.236, -9.194e-4, 5.334e-5
-0.235, -9.198e-4, 5.311e-5
-0.234, -9.204e-4, 5.286e-5
-0.233, -9.193e-4, 5.270e-5
-0.232, -9.193e-4, 5.248e-5
-0.231, -9.191e-4, 5.214e-5
-0.230, -9.186e-4, 5.196e-5
-0.229, -9.176e-4, 5.156e-5
-0.228, -9.170e-4, 5.133e-5
-0.227, -9.160e-4, 5.108e-5
-0.226, -9.162e-4, 5.085e-5
-0.225, -9.165e-4, 5.052e-5
-0.224, -9.164e-4, 5.031e-5
-0.223, -9.157e-4, 5.001e-5
-0.222, -9.162e-4, 4.972e-5
-0.221, -9.149e-4, 4.940e-5
-0.220, -9.139e-4, 4.908e-5
-0.219, -9.112e-4, 4.880e-5
-0.218, -9.148e-4, 4.854e-5
-0.217, -9.124e-4, 4.818e-5
-0.216, -9.121e-4, 4.789e-5
-0.215, -9.131e-4, 4.754e-5
-0.214, -9.124e-4, 4.725e-5
-0.213, -9.119e-4, 4.691e-5
-0.212, -9.101e-4, 4.647e-5
-0.211, -9.104e-4, 4.615e-5
-0.210, -9.081e-4, 4.576e-5
-0.209, -9.073e-4, 4.539e-5
-0.208, -9.068e-4, 4.497e-5
-0.207, -9.049e-4, 4.453e-5
-0.206, -9.026e-4, 4.411e-5
-0.205, -9.019e-4, 4.372e-5
-0.204, -9.007e-4, 4.341e-5
-0.203, -8.997e-4, 4.294e-5
-0.202, -8.991e-4, 4.255e-5
-0.201, -8.970e-4, 4.207e-5
-0.200, -8.963e-4, 4.160e-5
-0.199, -8.951e-4, 4.121e-5
-0.198, -8.913e-4, 4.069e-5
-0.197, -8.907e-4, 4.017e-5
-0.196, -8.883e-4, 3.969e-5
-0.195, -8.865e-4, 3.921e-5
-0.194, -8.833e-4, 3.875e-5
-0.193, -8.820e-4, 3.819e-5
-0.192, -8.782e-4, 3.769e-5
-0.191, -8.759e-4, 3.721e-5
-0.190, -8.719e-4, 3.671e-5
-0.189, -8.714e-4, 3.616e-5
-0.188, -8.677e-4, 3.565e-5
-0.187, -8.652e-4, 3.514e-5
-0.186, -8.629e-4, 3.454e-5
-0.185, -8.593e-4, 3.400e-5
-0.184, -8.559e-4, 3.346e-5
-0.183, -8.531e-4, 3.296e-5
-0.182, -8.478e-4, 3.241e-5
-0.181, -8.439e-4, 3.184e-5
-0.180, -8.422e-4, 3.132e-5
-0.179, -8.371e-4, 3.077e-5
-0.178, -8.327e-4, 3.013e-5
-0.177, -8.280e-4, 2.960e-5
-0.176, -8.241e-4, 2.912e-5
-0.175, -8.193e-4, 2.851e-5
-0.174, -8.148e-4, 2.798e-5
-0.173, -8.077e-4, 2.741e-5
-0.172, -8.050e-4, 2.689e-5
-0.171, -7.984e-4, 2.637e-5
-0.170, -7.924e-4, 2.585e-5
-0.169, -7.885e-4, 2.532e-5
-0.168, -7.819e-4, 2.480e-5
-0.167, -7.758e-4, 2.429e-5
-0.166, -7.694e-4, 2.381e-5
-0.165, -7.631e-4, 2.331e-5
-0.164, -7.586e-4, 2.284e-5
-0.163, -7.502e-4, 2.235e-5
-0.162, -7.440e-4, 2.188e-5
-0.161, -7.380e-4, 2.147e-5
-0.160, -7.299e-4, 2.097e-5
-0.159, -7.253e-4, 2.057e-5
-0.158, -7.158e-4, 2.015e-5
-0.157, -7.089e-4, 1.969e-5
-0.156, -7.018e-4, 1.933e-5
-0.155, -6.938e-4, 1.892e-5
-0.154, -6.854e-4, 1.851e-5
-0.153, -6.780e-4, 1.816e-5
-0.152, -6.706e-4, 1.783e-5
-0.151, -6.622e-4, 1.745e-5
-0.150, -6.536e-4, 1.711e-5
-0.149, -6.462e-4, 1.681e-5
-0.148, -6.371e-4, 1.648e-5
-0.147, -6.286e-4, 1.618e-5
-0.146, -6.205e-4, 1.591e-5
-0.145, -6.118e-4, 1.559e-5
-0.144, -6.016e-4, 1.528e-5
-0.143, -5.942e-4, 1.511e-5
-0.142, -5.847e-4, 1.483e-5
-0.141, -5.763e-4, 1.457e-5
-0.140, -5.682e-4, 1.434e-5
-0.139, -5.586e-4, 1.414e-5
-0.138, -5.487e-4, 1.391e-5
-0.137, -5.393e-4, 1.370e-5
-0.136, -5.313e-4, 1.351e-5
-0.135, -5.203e-4, 1.333e-5
-0.134, -5.117e-4, 1.314e-5
-0.133, -5.036e-4, 1.299e-5
-0.132, -4.923e-4, 1.282e-5
-0.131, -4.834e-4, 1.266e-5
-0.130, -4.728e-4, 1.252e-5
-0.129, -4.656e-4, 1.240e-5
-0.128, -4.552e-4, 1.224e-5
-0.127, -4.455e-4, 1.211e-5
-0.126, -4.358e-4, 1.198e-5
-0.125, -4.267e-4, 1.186e-5
-0.124, -4.166e-4, 1.173e-5
-0.123, -4.078e-4, 1.165e-5
-0.122, -3.978e-4, 1.153e-5
-0.121, -3.881e-4, 1.144e-5
-0.120, -3.788e-4, 1.134e-5
-0.119, -3.694e-4, 1.124e-5
-0.118, -3.597e-4, 1.116e-5
-0.117, -3.503e-4, 1.109e-5
-0.116, -3.408e-4, 1.100e-5
-0.115, -3.310e-4, 1.092e-5
-0.114, -3.222e-4, 1.086e-5
-0.113, -3.129e-4, 1.080e-5
-0.112, -3.028e-4, 1.074e-5
-0.111, -2.939e-4, 1.068e-5
-0.110, -2.850e-4, 1.061e-5
-0.109, -2.756e-4, 1.056e-5
-0.108, -2.667e-4, 1.051e-5
-0.107, -2.580e-4, 1.047e-5
-0.106, -2.483e-4, 1.041e-5
-0.105, -2.402e-4, 1.039e-5
-0.104, -2.309e-4, 1.033e-5
-0.103, -2.215e-4, 1.028e-5
-0.102, -2.121e-4, 1.027e-5
-0.101, -2.056e-4, 1.021e-5
-0.100, -1.964e-4, 1.018e-5
-0.099, -1.883e-4, 1.015e-5
-0.098, -1.800e-4, 1.012e-5
-0.097, -1.716e-4, 1.008e-5
-0.096, -1.630e-4, 1.007e-5
-0.095, -1.559e-4, 1.005e-5
-0.094, -1.475e-4, 1.002e-5
-0.093, -1.399e-4, 9.996e-6
-0.092, -1.320e-4, 9.975e-6
-0.091, -1.245e-4, 9.944e-6
-0.090, -1.172e-4, 9.924e-6
-0.089, -1.097e-4, 9.921e-6
-0.088, -1.029e-4, 9.908e-6
-0.087, -9.576e-5, 9.888e-6
-0.086, -8.842e-5, 9.871e-6
-0.085, -8.203e-5, 9.852e-6
-0.084, -7.487e-5, 9.840e-6
-0.083, -6.823e-5, 9.826e-6
-0.082, -6.222e-5, 9.821e-6
-0.081, -5.554e-5, 9.809e-6
-0.080, -4.926e-5, 9.798e-6
-0.079, -4.313e-5, 9.791e-6
-0.078, -3.710e-5, 9.778e-6
-0.077, -3.137e-5, 9.774e-6
-0.076, -2.540e-5, 9.763e-6
-0.075, -2.025e-5, 9.760e-6
-0.074, -1.450e-5, 9.749e-6
-0.073, -9.196e-6, 9.736e-6
-0.072, -4.193e-6, 9.731e-6
-0.071, 1.402e-6, 9.727e-6
-0.070, 6.581e-6, 9.726e-6
-0.069, 1.107e-5, 9.721e-6
-0.068, 1.619e-5, 9.710e-6
-0.067, 2.034e-5, 9.708e-6
-0.066, 2.510e-5, 9.705e-6
-0.065, 2.939e-5, 9.701e-6
-0.064, 3.388e-5, 9.694e-6
-0.063, 3.752e-5, 9.698e-6
-0.062, 4.163e-5, 9.687e-6
-0.061, 4.561e-5, 9.676e-6
-0.060, 4.926e-5, 9.681e-6
-0.059, 5.279e-5, 9.682e-6
-0.058, 5.676e-5, 9.673e-6
-0.057, 6.005e-5, 9.678e-6
-0.056, 6.305e-5, 9.677e-6
-0.055, 6.658e-5, 9.670e-6
-0.054, 6.987e-5, 9.677e-6
-0.053, 7.289e-5, 9.672e-6
-0.052, 7.596e-5, 9.664e-6
-0.051, 7.928e-5, 9.665e-6
-0.050, 8.128e-5, 9.665e-6
-0.049, 8.410e-5, 9.661e-6
-0.048, 8.687e-5, 9.658e-6
-0.047, 8.918e-5, 9.664e-6
-0.046, 9.159e-5, 9.658e-6
-0.045, 9.379e-5, 9.659e-6
-0.044, 9.632e-5, 9.646e-6
-0.043, 9.790e-5, 9.650e-6
-0.042, 1.004e-4, 9.644e-6
-0.041, 1.026e-4, 9.643e-6
-0.040, 1.042e-4, 9.650e-6
-0.039, 1.064e-4, 9.639e-6
-0.038, 1.082e-4, 9.647e-6
-0.037, 1.096e-4, 9.652e-6
-0.036, 1.114e-4, 9.645e-6
-0.035, 1.132e-4, 9.640e-6
-0.034, 1.146e-4, 9.648e-6
-0.033, 1.161e-4, 9.640e-6
-0.032, 1.178e-4, 9.632e-6
-0.031, 1.190e-4, 9.639e-6
-0.030, 1.203e-4, 9.633e-6
-0.029, 1.217e-4, 9.639e-6
-0.028, 1.231e-4, 9.637e-6
-0.027, 1.238e-4, 9.638e-6
-0.026, 1.256e-4, 9.635e-6
-0.025, 1.264e-4, 9.636e-6
-0.024, 1.272e-4, 9.641e-6
-0.023, 1.282e-4, 9.631e-6
-0.022, 1.295e-4, 9.634e-6
-0.021, 1.304e-4, 9.632e-6
-0.020, 1.314e-4, 9.630e-6
-0.019, 1.325e-4, 9.630e-6
-0.018, 1.329e-4, 9.631e-6
-0.017, 1.341e-4, 9.627e-6
-0.016, 1.343e-4, 9.632e-6
-0.015, 1.356e-4, 9.626e-6
-0.014, 1.363e-4, 9.627e-6
-0.013, 1.372e-4, 9.629e-6
-0.012, 1.377e-4, 9.625e-6
-0.011, 1.383e-4, 9.622e-6
-0.010, 1.390e-4, 9.616e-6
-0.009, 1.398e-4, 9.620e-6
-0.008, 1.401e-4, 9.623e-6
-0.007, 1.408e-4, 9.613e-6
-0.006, 1.415e-4, 9.615e-6
-0.005, 1.418e-4, 9.621e-6
-0.004, 1.425e-4, 9.607e-6
-0.003, 1.430e-4, 9.612e-6
-0.002, 1.437e-4, 9.615e-6
-0.001, 1.442e-4, 9.612e-6
-0.000, 1.462e-4, 9.610e-6
0.001, 1.451e-4, 9.626e-6
0.002, 1.457e-4, 9.607e-6
0.003, 1.461e-4, 9.603e-6
0.004, 1.462e-4, 9.601e-6
0.005, 1.467e-4, 9.597e-6
0.006, 1.471e-4, 9.600e-6
0.007, 1.477e-4, 9.597e-6
0.008, 1.477e-4, 9.594e-6
0.009, 1.483e-4, 9.594e-6
0.010, 1.490e-4, 9.595e-6
0.011, 1.492e-4, 9.595e-6
0.012, 1.494e-4, 9.597e-6
0.013, 1.495e-4, 9.592e-6
0.014, 1.501e-4, 9.599e-6
0.015, 1.505e-4, 9.587e-6
0.016, 1.509e-4, 9.595e-6
0.017, 1.509e-4, 9.596e-6
0.018, 1.516e-4, 9.578e-6
0.019, 1.518e-4, 9.584e-6
0.020, 1.522e-4, 9.585e-6
0.021, 1.523e-4, 9.578e-6
0.022, 1.529e-4, 9.581e-6
0.023, 1.532e-4, 9.583e-6
0.024, 1.534e-4, 9.574e-6
0.025, 1.538e-4, 9.576e-6
0.026, 1.540e-4, 9.573e-6
0.027, 1.542e-4, 9.573e-6
0.028, 1.546e-4, 9.576e-6
0.029, 1.548e-4, 9.570e-6
0.030, 1.550e-4, 9.572e-6
0.031, 1.556e-4, 9.559e-6
0.032, 1.556e-4, 9.572e-6
0.033, 1.551e-4, 9.570e-6
0.034, 1.570e-4, 9.557e-6
0.035, 1.569e-4, 9.557e-6
0.036, 1.569e-4, 9.559e-6
0.037, 1.570e-4, 9.547e-6
0.038, 1.579e-4, 9.546e-6
0.039, 1.578e-4, 9.544e-6
0.040, 1.578e-4, 9.543e-6
0.041, 1.582e-4, 9.543e-6
0.042, 1.588e-4, 9.543e-6
0.043, 1.586e-4, 9.544e-6
0.044, 1.585e-4, 9.534e-6
0.045, 1.599e-4, 9.548e-6
0.046, 1.597e-4, 9.542e-6
0.047, 1.600e-4, 9.527e-6
0.048, 1.602e-4, 9.537e-6
0.049, 1.607e-4, 9.534e-6
0.050, 1.607e-4, 9.524e-6
0.051, 1.616e-4, 9.523e-6
0.052, 1.613e-4, 9.533e-6
0.053, 1.614e-4, 9.526e-6
0.054, 1.619e-4, 9.528e-6
0.055, 1.620e-4, 9.520e-6
0.056, 1.621e-4, 9.526e-6
0.057, 1.627e-4, 9.517e-6
0.058, 1.632e-4, 9.524e-6
0.059, 1.630e-4, 9.510e-6
0.060, 1.639e-4, 9.506e-6
0.061, 1.637e-4, 9.512e-6
0.062, 1.642e-4, 9.513e-6
0.063, 1.646e-4, 9.498e-6
0.064, 1.646e-4, 9.497e-6
0.065, 1.647e-4, 9.501e-6
0.066, 1.652e-4, 9.502e-6
0.067, 1.654e-4, 9.498e-6
0.068, 1.657e-4, 9.500e-6
0.069, 1.661e-4, 9.492e-6
0.070, 1.665e-4, 9.492e-6
0.071, 1.667e-4, 9.492e-6
0.072, 1.667e-4, 9.482e-6
0.073, 1.672e-4, 9.481e-6
0.074, 1.676e-4, 9.478e-6
0.075, 1.676e-4, 9.466e-6
0.076, 1.680e-4, 9.476e-6
0.077, 1.685e-4, 9.474e-6
0.078, 1.686e-4, 9.470e-6
0.079, 1.689e-4, 9.468e-6
0.080, 1.690e-4, 9.477e-6
0.081, 1.692e-4, 9.470e-6
0.082, 1.703e-4, 9.467e-6
0.083, 1.699e-4, 9.470e-6
0.084, 1.710e-4, 9.460e-6
0.085, 1.705e-4, 9.459e-6
0.086, 1.710e-4, 9.466e-6
0.087, 1.715e-4, 9.462e-6
0.088, 1.713e-4, 9.462e-6
0.089, 1.725e-4, 9.454e-6
0.090, 1.725e-4, 9.457e-6
0.091, 1.730e-4, 9.450e-6
0.092, 1.724e-4, 9.452e-6
0.093, 1.734e-4, 9.457e-6
0.094, 1.734e-4, 9.438e-6
0.095, 1.735e-4, 9.439e-6
0.096, 1.748e-4, 9.439e-6
0.097, 1.743e-4, 9.437e-6
0.098, 1.750e-4, 9.433e-6
0.099, 1.755e-4, 9.431e-6
0.100, 1.758e-4, 9.436e-6
0.101, 1.763e-4, 9.423e-6
0.102, 1.770e-4, 9.428e-6
0.103, 1.771e-4, 9.427e-6
0.104, 1.771e-4, 9.435e-6
0.105, 1.771e-4, 9.438e-6
0.106, 1.783e-4, 9.410e-6
0.107, 1.781e-4, 9.423e-6
0.108, 1.784e-4, 9.425e-6
0.109, 1.792e-4, 9.411e-6
0.110, 1.793e-4, 9.419e-6
0.111, 1.794e-4, 9.416e-6
0.112, 1.801e-4, 9.404e-6
0.113, 1.804e-4, 9.410e-6
0.114, 1.809e-4, 9.415e-6
0.115, 1.816e-4, 9.411e-6
0.116, 1.817e-4, 9.411e-6
0.117, 1.818e-4, 9.417e-6
0.118, 1.826e-4, 9.416e-6
0.119, 1.833e-4, 9.402e-6
0.120, 1.830e-4, 9.400e-6
0.121, 1.840e-4, 9.396e-6
0.122, 1.845e-4, 9.397e-6
0.123, 1.848e-4, 9.395e-6
0.124, 1.850e-4, 9.403e-6
0.125, 1.858e-4, 9.393e-6
0.126, 1.861e-4, 9.390e-6
0.127, 1.863e-4, 9.392e-6
0.128, 1.869e-4, 9.378e-6
0.129, 1.877e-4, 9.386e-6
0.130, 1.879e-4, 9.385e-6
0.131, 1.883e-4, 9.386e-6
0.132, 1.895e-4, 9.381e-6
0.133, 1.889e-4, 9.385e-6
0.134, 1.904e-4, 9.377e-6
0.135, 1.903e-4, 9.368e-6
0.136, 1.901e-4, 9.383e-6
0.137, 1.915e-4, 9.374e-6
0.138, 1.922e-4, 9.364e-6
0.139, 1.926e-4, 9.367e-6
0.140, 1.932e-4, 9.363e-6
0.141, 1.942e-4, 9.352e-6
0.142, 1.940e-4, 9.361e-6
0.143, 1.948e-4, 9.341e-6
0.144, 1.955e-4, 9.355e-6
0.145, 1.962e-4, 9.351e-6
0.146, 1.966e-4, 9.356e-6
0.147, 1.975e-4, 9.344e-6
0.148, 1.984e-4, 9.345e-6
0.149, 1.981e-4, 9.350e-6
0.150, 1.996e-4, 9.353e-6
0.151, 2.000e-4, 9.349e-6
0.152, 2.001e-4, 9.353e-6
0.153, 2.016e-4, 9.344e-6
0.154, 2.024e-4, 9.340e-6
0.155, 2.024e-4, 9.346e-6
0.156, 2.036e-4, 9.337e-6
0.157, 2.040e-4, 9.321e-6
0.158, 2.040e-4, 9.341e-6
0.159, 2.060e-4, 9.323e-6
0.160, 2.063e-4, 9.319e-6
0.161, 2.069e-4, 9.333e-6
0.162, 2.084e-4, 9.322e-6
0.163, 2.090e-4, 9.316e-6
0.164, 2.086e-4, 9.319e-6
0.165, 2.112e-4, 9.319e-6
0.166, 2.117e-4, 9.304e-6
0.167, 2.123e-4, 9.311e-6
0.168, 2.130e-4, 9.315e-6
0.169, 2.138e-4, 9.304e-6
0.170, 2.150e-4, 9.306e-6
0.171, 2.154e-4, 9.300e-6
0.172, 2.171e-4, 9.293e-6
0.173, 2.176e-4, 9.287e-6
0.174, 2.184e-4, 9.297e-6
0.175, 2.201e-4, 9.283e-6
0.176, 2.209e-4, 9.281e-6
0.177, 2.219e-4, 9.289e-6
0.178, 2.232e-4, 9.274e-6
0.179, 2.243e-4, 9.273e-6
0.180, 2.253e-4, 9.274e-6
0.181, 2.261e-4, 9.264e-6
0.182, 2.271e-4, 9.268e-6
0.183, 2.277e-4, 9.266e-6
0.184, 2.303e-4, 9.255e-6
0.185, 2.311e-4, 9.244e-6
0.186, 2.323e-4, 9.262e-6
0.187, 2.333e-4, 9.264e-6
0.188, 2.352e-4, 9.251e-6
0.189, 2.361e-4, 9.241e-6
0.190, 2.376e-4, 9.256e-6
0.191, 2.395e-4, 9.239e-6
0.192, 2.404e-4, 9.233e-6
0.193, 2.418e-4, 9.247e-6
0.194, 2.432e-4, 9.222e-6
0.195, 2.446e-4, 9.223e-6
0.196, 2.460e-4, 9.223e-6
0.197, 2.476e-4, 9.221e-6
0.198, 2.495e-4, 9.197e-6
0.199, 2.508e-4, 9.189e-6
